# ps_pos exposure_time(s) O-Beam H-Beam Monitor AUX-Beam time(s) O+H+AUX encod1 encod2
1 -1.120605 30.0 5568 2157 74409 5222 3844192382 7725 0.000000 0.000000
2 -1.054688 30.0 5439 2385 74430 5251 3844192417 7824 0.000000 0.000000
3 -0.988769 30.0 4891 2728 75073 5327 3844192453 7619 0.000000 0.000000
4 -0.944824 30.0 4153 3456 74238 5286 3844192488 7609 0.000000 0.000000
5 -0.878906 30.0 3221 4221 74175 5216 3844192523 7442 0.000000 0.000000
6 -0.802002 30.0 2460 4832 74061 5268 3844192558 7292 0.000000 0.000000
7 -0.725098 30.0 1712 5593 73920 5306 3844192593 7305 0.000000 0.000000
8 -0.670166 30.0 1311 5914 74044 5353 3844192629 7225 0.000000 0.000000
9 -0.615234 30.0 1259 6094 74444 5258 3844192664 7353 0.000000 0.000000
10 -0.527344 30.0 1572 5660 73997 5323 3844192699 7232 0.000000 0.000000
11 -0.472412 30.0 2005 5289 74248 5324 3844192734 7294 0.000000 0.000000
12 -0.417480 30.0 2499 4897 74298 5284 3844192769 7396 0.000000 0.000000
13 -0.351562 30.0 3509 4214 74225 5185 3844192804 7723 0.000000 0.000000
14 -0.285645 30.0 4319 3195 73473 5284 3844192840 7514 0.000000 0.000000
15 -0.208740 30.0 5142 2547 73666 5253 3844192875 7689 0.000000 0.000000
16 -0.142822 30.0 5418 2139 73656 5329 3844192910 7557 0.000000 0.000000
17 -0.087891 30.0 5557 2158 73549 5253 3844192945 7715 0.000000 0.000000
18 -0.010986 30.0 5272 2430 74071 5273 3844192980 7702 0.000000 0.000000
19 0.054932 30.0 4732 2910 73886 5164 3844193016 7642 0.000000 0.000000
20 0.120850 30.0 4055 3567 74585 5371 3844193051 7622 0.000000 0.000000
21 0.175781 30.0 3177 4291 73974 5159 3844193086 7468 0.000000 0.000000
22 0.252686 30.0 2355 5057 73929 5110 3844193121 7412 0.000000 0.000000
23 0.318603 30.0 1545 5725 73573 5275 3844193156 7270 0.000000 0.000000
24 0.384522 30.0 1352 5952 74141 5204 3844193191 7304 0.000000 0.000000
25 0.439453 30.0 1183 5859 74594 5066 3844193227 7042 0.000000 0.000000
26 0.483398 30.0 1405 5796 74199 5252 3844193262 7201 0.000000 0.000000
27 0.560303 30.0 1959 5340 74695 5229 3844193297 7299 0.000000 0.000000
28 0.604248 30.0 2480 4908 73868 5287 3844193332 7388 0.000000 0.000000
29 0.681152 30.0 3255 4295 73995 5205 3844193367 7550 0.000000 0.000000
30 0.747070 30.0 4307 3223 74538 5261 3844193402 7530 0.000000 0.000000
31 0.812988 30.0 4955 2802 74097 5226 3844193438 7757 0.000000 0.000000
32 0.867920 30.0 5380 2321 74200 5131 3844193473 7701 0.000000 0.000000
33 0.922852 30.0 5527 2174 73698 5070 3844193508 7701 0.000000 0.000000
34 0.977783 30.0 5601 2196 74154 5267 3844193543 7797 0.000000 0.000000
35 1.043701 30.0 5067 2468 74017 5203 3844193578 7535 0.000000 0.000000
36 1.109619 30.0 4162 3397 73873 5253 3844193613 7559 0.000000 0.000000
37 1.197510 30.0 3419 4000 74205 5225 3844193649 7419 0.000000 0.000000
38 1.241455 30.0 2705 4706 74022 5093 3844193684 7411 0.000000 0.000000
39 1.318359 30.0 2091 5243 74495 5173 3844193719 7334 0.000000 0.000000
40 1.373291 30.0 1378 5841 74165 5111 3844193754 7219 0.000000 0.000000
41 1.450195 30.0 1160 5950 74442 5151 3844193789 7110 0.000000 0.000000
42 1.505127 30.0 1220 6007 74331 5044 3844193825 7227 0.000000 0.000000
43 1.582031 30.0 1798 5612 74190 5250 3844193860 7410 0.000000 0.000000
44 1.636963 30.0 2129 5299 73908 5185 3844193895 7428 0.000000 0.000000
45 1.702881 30.0 3142 4258 74002 5207 3844193930 7400 0.000000 0.000000
46 1.768799 30.0 3727 3678 74585 5155 3844193966 7405 0.000000 0.000000
47 1.823730 30.0 4811 2875 74422 5173 3844194001 7686 0.000000 0.000000
48 1.900635 30.0 5316 2389 74713 5184 3844194036 7705 0.000000 0.000000
