# ps_pos exposure_time(s) O-Beam H-Beam Monitor AUX-Beam time(s) O+H+AUX encod1 encod2
1 -0.922852 30.0 1161 6343 70832 4679 3843401498 7504 0.000000 0.000000
2 -0.856934 30.0 1267 6426 71441 4726 3843401533 7693 0.000000 0.000000
3 -0.802002 30.0 1717 6015 71604 4703 3843401569 7732 0.000000 0.000000
4 -0.725098 30.0 2389 5397 71516 4592 3843401604 7786 0.000000 0.000000
5 -0.670166 30.0 3511 4270 71526 4807 3843401639 7781 0.000000 0.000000
6 -0.604248 30.0 4471 3445 71754 4752 3843401674 7916 0.000000 0.000000
7 -0.538330 30.0 5554 2672 71438 4736 3843401709 8226 0.000000 0.000000
8 -0.461426 30.0 5996 2312 71464 4582 3843401745 8308 0.000000 0.000000
9 -0.395508 30.0 6220 2082 71432 4854 3843401780 8302 0.000000 0.000000
10 -0.318603 30.0 5690 2457 71214 4732 3843401815 8147 0.000000 0.000000
11 -0.241699 30.0 5132 3061 71206 4679 3843401850 8193 0.000000 0.000000
12 -0.175781 30.0 4445 3556 71236 4706 3843401885 8001 0.000000 0.000000
13 -0.120850 30.0 3245 4608 71882 4681 3843401921 7853 0.000000 0.000000
14 -0.043945 30.0 2364 5399 71339 4745 3843401956 7763 0.000000 0.000000
15 0.000000 30.0 1794 5894 71497 4678 3843401991 7688 0.000000 0.000000
16 0.087891 30.0 1255 6310 71505 4665 3843402026 7565 0.000000 0.000000
17 0.164795 30.0 1165 6436 71393 4563 3843402061 7601 0.000000 0.000000
18 0.230713 30.0 1476 6138 71914 4709 3843402097 7614 0.000000 0.000000
19 0.285645 30.0 2256 5484 71510 4755 3843402132 7740 0.000000 0.000000
20 0.351562 30.0 3064 4850 71590 4633 3843402167 7914 0.000000 0.000000
21 0.428467 30.0 4199 3963 71232 4680 3843402202 8162 0.000000 0.000000
22 0.494385 30.0 5140 3044 71491 4850 3843402237 8184 0.000000 0.000000
23 0.571289 30.0 5683 2390 71459 4564 3843402272 8073 0.000000 0.000000
24 0.626221 30.0 6152 2144 71780 4832 3843402308 8296 0.000000 0.000000
25 0.703125 30.0 5955 2188 71008 4634 3843402343 8143 0.000000 0.000000
26 0.758057 30.0 5556 2634 71569 4744 3843402378 8190 0.000000 0.000000
27 0.823975 30.0 4578 3364 71178 4738 3843402413 7942 0.000000 0.000000
28 0.889893 30.0 3804 4095 71358 4712 3843402449 7899 0.000000 0.000000
29 0.955811 30.0 2812 5004 71645 4710 3843402484 7816 0.000000 0.000000
30 1.032715 30.0 1934 5706 71310 4714 3843402519 7640 0.000000 0.000000
31 1.098633 30.0 1450 6166 71237 4720 3843402554 7616 0.000000 0.000000
32 1.164551 30.0 1087 6476 71217 4725 3843402590 7563 0.000000 0.000000
