# ps_pos exposure_time(s) O-Beam H-Beam Monitor AUX-Beam time(s) O+H+AUX encod1 encod2
1 -1.417236 30.0 6167 2150 71189 4826 3843398099 8317 0.000000 0.000000
2 -1.373291 30.0 6070 2257 72163 4912 3843398134 8327 0.000000 0.000000
3 -1.296387 30.0 5477 2703 71432 4755 3843398169 8180 0.000000 0.000000
4 -1.219482 30.0 4600 3411 71342 4758 3843398204 8011 0.000000 0.000000
5 -1.175537 30.0 3640 4296 71998 4717 3843398240 7936 0.000000 0.000000
6 -1.109619 30.0 2683 5173 71091 4745 3843398275 7856 0.000000 0.000000
7 -1.054688 30.0 2128 5669 71525 4854 3843398310 7797 0.000000 0.000000
8 -0.999756 30.0 1433 6254 71437 4630 3843398345 7687 0.000000 0.000000
9 -0.922852 30.0 1168 6575 71589 4638 3843398380 7743 0.000000 0.000000
10 -0.856934 30.0 1248 6367 71732 4759 3843398416 7615 0.000000 0.000000
11 -0.802002 30.0 1712 6097 71326 4791 3843398451 7809 0.000000 0.000000
12 -0.736084 30.0 2345 5444 71567 4756 3843398486 7789 0.000000 0.000000
13 -0.659180 30.0 3587 4225 71220 4681 3843398521 7812 0.000000 0.000000
14 -0.604248 30.0 4580 3379 71304 4786 3843398556 7959 0.000000 0.000000
15 -0.527344 30.0 5281 2798 71122 4717 3843398592 8079 0.000000 0.000000
16 -0.461426 30.0 5866 2402 71489 4782 3843398627 8268 0.000000 0.000000
17 -0.395508 30.0 5960 2117 71184 4683 3843398662 8077 0.000000 0.000000
18 -0.329590 30.0 5800 2338 71629 4738 3843398697 8138 0.000000 0.000000
19 -0.263672 30.0 5395 2811 71224 4754 3843398732 8206 0.000000 0.000000
20 -0.197754 30.0 4625 3347 71462 4690 3843398768 7972 0.000000 0.000000
21 -0.142822 30.0 3687 4151 71427 4684 3843398803 7838 0.000000 0.000000
22 -0.087891 30.0 2736 5109 71736 4737 3843398838 7845 0.000000 0.000000
23 -0.021973 30.0 1877 5709 71150 4662 3843398873 7586 0.000000 0.000000
24 0.054932 30.0 1351 6144 71433 4702 3843398909 7495 0.000000 0.000000
25 0.109863 30.0 1204 6416 71620 4787 3843398944 7620 0.000000 0.000000
26 0.164795 30.0 1237 6282 71498 4676 3843398979 7519 0.000000 0.000000
27 0.241699 30.0 1628 6074 71918 4658 3843399014 7702 0.000000 0.000000
28 0.296631 30.0 2559 5359 71710 4743 3843399049 7918 0.000000 0.000000
29 0.373535 30.0 3389 4496 71506 4751 3843399085 7885 0.000000 0.000000
30 0.439453 30.0 4184 3670 71286 4857 3843399120 7854 0.000000 0.000000
31 0.505371 30.0 5299 2883 71487 4579 3843399155 8182 0.000000 0.000000
32 0.571289 30.0 5810 2371 71158 4736 3843399190 8181 0.000000 0.000000
