* begin:	03/03/2023 12:04:16
* script file:	D:\data\Cycle 192\exp_3-16-13\rawdata\sc\ifg_vs_aperturY.cfg
*
[STANDARD]
		
[ifg_vs_aperturY]
	created 03/03/2023   11:33
[MOTOR]
	S18.axis2.Aperture Y	1	mm	absolute	1.00000				
[SCAN]
	file path	.
	name		ifg_vs_aperturY_0
	category	standard
	# repeats	1
	notes		room to enter remarks
[SUBSCAN]
	S18.axis2.phase shifter	32	deg	107.800000	110.125000	0.075000	0.100000	FALSE	time	10.000000			
[ENDSCAN]
[MOTOR]
	S18.axis2.Aperture Y	1	mm	absolute	2.00000				
[SCAN]
	file path	.
	name		ifg_vs_aperturY_1
	category	standard
	# repeats	1
	notes		room to enter remarks
[SUBSCAN]
	S18.axis2.phase shifter	32	deg	107.800000	110.125000	0.075000	0.100000	FALSE	time	10.000000			
[ENDSCAN]
[MOTOR]
	S18.axis2.Aperture Y	1	mm	absolute	3.00000				
[SCAN]
	file path	.
	name		ifg_vs_aperturY_2
	category	standard
	# repeats	1
	notes		room to enter remarks
[SUBSCAN]
	S18.axis2.phase shifter	32	deg	107.800000	110.125000	0.075000	0.100000	FALSE	time	10.000000			
[ENDSCAN]
[MOTOR]
	S18.axis2.Aperture Y	1	mm	absolute	4.00000				
[SCAN]
	file path	.
	name		ifg_vs_aperturY_3
	category	standard
	# repeats	1
	notes		room to enter remarks
[SUBSCAN]
	S18.axis2.phase shifter	32	deg	107.800000	110.125000	0.075000	0.100000	FALSE	time	10.000000			
[ENDSCAN]
[MOTOR]
	S18.axis2.Aperture Y	1	mm	absolute	5.00000				
[SCAN]
	file path	.
	name		ifg_vs_aperturY_4
	category	standard
	# repeats	1
	notes		room to enter remarks
[SUBSCAN]
	S18.axis2.phase shifter	32	deg	107.800000	110.125000	0.075000	0.100000	FALSE	time	10.000000			
[ENDSCAN]
[MOTOR]
	S18.axis2.Aperture Y	1	mm	absolute	6.00000				
[SCAN]
	file path	.
	name		ifg_vs_aperturY_5
	category	standard
	# repeats	1
	notes		room to enter remarks
[SUBSCAN]
	S18.axis2.phase shifter	32	deg	107.800000	110.125000	0.075000	0.100000	FALSE	time	10.000000			
[ENDSCAN]
[END]

* remarks:	room to enter remarks
*
1	107.7939453	10.0	1810	2925	145044	2347	3760686275	4735	0.0000000	0.0000000
2	107.8750000	10.0	2369	2292	146219	2486	3760686293	4661	0.0000000	0.0000000
3	107.9497070	10.0	2529	2079	146177	2352	3760686310	4608	0.0000000	0.0000000
4	108.0249023	10.0	2253	2401	145848	2435	3760686328	4654	0.0000000	0.0000000
5	108.0996094	10.0	1975	2558	144940	2347	3760686346	4533	0.0000000	0.0000000
6	108.1752930	10.0	1520	3100	144504	2397	3760686364	4620	0.0000000	0.0000000
7	108.2500000	10.0	1028	3608	146153	2352	3760686381	4636	0.0000000	0.0000000
8	108.3251953	10.0	667	3982	144511	2403	3760686399	4649	0.0000000	0.0000000
9	108.3999023	10.0	533	4172	145072	2520	3760686417	4705	0.0000000	0.0000000
10	108.4750977	10.0	994	3593	145284	2416	3760686434	4587	0.0000000	0.0000000
11	108.5502930	10.0	1448	3138	145260	2485	3760686452	4586	0.0000000	0.0000000
12	108.6250000	10.0	2107	2599	145579	2324	3760686469	4706	0.0000000	0.0000000
13	108.6997070	10.0	2469	2156	145146	2383	3760686487	4625	0.0000000	0.0000000
14	108.7749023	10.0	2444	2177	146262	2439	3760686505	4621	0.0000000	0.0000000
15	108.8500977	10.0	2325	2349	144418	2373	3760686522	4674	0.0000000	0.0000000
16	108.9252930	10.0	1692	2831	145921	2316	3760686540	4523	0.0000000	0.0000000
17	109.0000000	10.0	1281	3475	145236	2388	3760686558	4756	0.0000000	0.0000000
18	109.0751953	10.0	672	4027	145997	2353	3760686576	4699	0.0000000	0.0000000
19	109.1499023	10.0	538	4296	145473	2447	3760686593	4834	0.0000000	0.0000000
20	109.2250977	10.0	635	4070	145364	2410	3760686611	4705	0.0000000	0.0000000
21	109.2998047	10.0	1210	3411	145186	2366	3760686629	4621	0.0000000	0.0000000
22	109.3750000	10.0	1622	2917	146109	2430	3760686646	4539	0.0000000	0.0000000
23	109.4501953	10.0	2299	2364	144133	2317	3760686664	4663	0.0000000	0.0000000
24	109.5249023	10.0	2597	2063	145239	2425	3760686682	4660	0.0000000	0.0000000
25	109.6000977	10.0	2434	2159	144592	2377	3760686699	4593	0.0000000	0.0000000
26	109.6748047	10.0	2208	2517	145239	2391	3760686717	4725	0.0000000	0.0000000
27	109.7504883	10.0	1600	3004	144230	2348	3760686735	4604	0.0000000	0.0000000
28	109.8247070	10.0	1039	3580	144978	2485	3760686753	4619	0.0000000	0.0000000
29	109.8999023	10.0	555	3969	146123	2483	3760686770	4524	0.0000000	0.0000000
30	109.9750977	10.0	607	4050	146119	2352	3760686788	4657	0.0000000	0.0000000
31	110.0498047	10.0	914	3823	143975	2312	3760686806	4737	0.0000000	0.0000000
32	110.1250000	10.0	1316	3365	145103	2377	3760686823	4681	0.0000000	0.0000000
* end: 03/03/2023 12:13:45
