* begin:	03/03/2023 12:24:21
* script file:	D:\data\Cycle 192\exp_3-16-13\rawdata\sc\ifg_vs_aperturY.cfg
*
[STANDARD]
		
[ifg_vs_aperturY]
	created 03/03/2023   11:33
[MOTOR]
	S18.axis2.Aperture Y	1	mm	absolute	1.00000				
[SCAN]
	file path	.
	name		ifg_vs_aperturY_0
	category	standard
	# repeats	1
	notes		room to enter remarks
[SUBSCAN]
	S18.axis2.phase shifter	32	deg	107.800000	110.125000	0.075000	0.100000	FALSE	time	10.000000			
[ENDSCAN]
[MOTOR]
	S18.axis2.Aperture Y	1	mm	absolute	2.00000				
[SCAN]
	file path	.
	name		ifg_vs_aperturY_1
	category	standard
	# repeats	1
	notes		room to enter remarks
[SUBSCAN]
	S18.axis2.phase shifter	32	deg	107.800000	110.125000	0.075000	0.100000	FALSE	time	10.000000			
[ENDSCAN]
[MOTOR]
	S18.axis2.Aperture Y	1	mm	absolute	3.00000				
[SCAN]
	file path	.
	name		ifg_vs_aperturY_2
	category	standard
	# repeats	1
	notes		room to enter remarks
[SUBSCAN]
	S18.axis2.phase shifter	32	deg	107.800000	110.125000	0.075000	0.100000	FALSE	time	10.000000			
[ENDSCAN]
[MOTOR]
	S18.axis2.Aperture Y	1	mm	absolute	4.00000				
[SCAN]
	file path	.
	name		ifg_vs_aperturY_3
	category	standard
	# repeats	1
	notes		room to enter remarks
[SUBSCAN]
	S18.axis2.phase shifter	32	deg	107.800000	110.125000	0.075000	0.100000	FALSE	time	10.000000			
[ENDSCAN]
[MOTOR]
	S18.axis2.Aperture Y	1	mm	absolute	5.00000				
[SCAN]
	file path	.
	name		ifg_vs_aperturY_4
	category	standard
	# repeats	1
	notes		room to enter remarks
[SUBSCAN]
	S18.axis2.phase shifter	32	deg	107.800000	110.125000	0.075000	0.100000	FALSE	time	10.000000			
[ENDSCAN]
[MOTOR]
	S18.axis2.Aperture Y	1	mm	absolute	6.00000				
[SCAN]
	file path	.
	name		ifg_vs_aperturY_5
	category	standard
	# repeats	1
	notes		room to enter remarks
[SUBSCAN]
	S18.axis2.phase shifter	32	deg	107.800000	110.125000	0.075000	0.100000	FALSE	time	10.000000			
[ENDSCAN]
[END]

* remarks:	room to enter remarks
*
1	107.7939453	10.0	1482	2542	142692	1992	3760687480	4024	0.0000000	0.0000000
2	107.8750000	10.0	1920	2185	143196	1957	3760687497	4105	0.0000000	0.0000000
3	107.9497070	10.0	2051	2064	145751	1946	3760687515	4115	0.0000000	0.0000000
4	108.0249023	10.0	2044	1997	144162	1929	3760687532	4041	0.0000000	0.0000000
5	108.0996094	10.0	1727	2247	143484	1909	3760687550	3974	0.0000000	0.0000000
6	108.1752930	10.0	1266	2750	144769	1995	3760687568	4016	0.0000000	0.0000000
7	108.2500000	10.0	838	3322	144074	2014	3760687586	4160	0.0000000	0.0000000
8	108.3251953	10.0	642	3442	144047	2007	3760687603	4084	0.0000000	0.0000000
9	108.3999023	10.0	639	3477	144866	1991	3760687621	4116	0.0000000	0.0000000
10	108.4750977	10.0	896	3300	143716	1935	3760687639	4196	0.0000000	0.0000000
11	108.5502930	10.0	1325	2860	143067	1978	3760687656	4185	0.0000000	0.0000000
12	108.6250000	10.0	1768	2314	142870	1968	3760687674	4082	0.0000000	0.0000000
13	108.6997070	10.0	1866	2310	145339	1973	3760687692	4176	0.0000000	0.0000000
14	108.7749023	10.0	1996	2029	142796	1971	3760687710	4025	0.0000000	0.0000000
15	108.8500977	10.0	1942	2214	143751	1961	3760687727	4156	0.0000000	0.0000000
16	108.9252930	10.0	1589	2558	142716	1996	3760687745	4147	0.0000000	0.0000000
17	109.0000000	10.0	1062	3020	143266	1993	3760687763	4082	0.0000000	0.0000000
18	109.0751953	10.0	739	3371	143103	1963	3760687781	4110	0.0000000	0.0000000
19	109.1499023	10.0	612	3523	144450	1936	3760687798	4135	0.0000000	0.0000000
20	109.2250977	10.0	601	3528	145156	2006	3760687816	4129	0.0000000	0.0000000
21	109.2998047	10.0	1094	2940	143042	1931	3760687834	4034	0.0000000	0.0000000
22	109.3750000	10.0	1411	2525	144987	1897	3760687851	3936	0.0000000	0.0000000
23	109.4501953	10.0	1736	2131	143470	1989	3760687869	3867	0.0000000	0.0000000
24	109.5249023	10.0	2089	1922	142256	2015	3760687887	4011	0.0000000	0.0000000
25	109.6000977	10.0	2146	1935	143303	2005	3760687905	4081	0.0000000	0.0000000
26	109.6748047	10.0	1767	2317	144799	1986	3760687922	4084	0.0000000	0.0000000
27	109.7504883	10.0	1369	2642	144969	1926	3760687940	4011	0.0000000	0.0000000
28	109.8247070	10.0	911	3069	144344	1914	3760687958	3980	0.0000000	0.0000000
29	109.8999023	10.0	619	3646	144566	1945	3760687975	4265	0.0000000	0.0000000
30	109.9750977	10.0	570	3496	143668	1991	3760687993	4066	0.0000000	0.0000000
31	110.0498047	10.0	730	3350	143284	1975	3760688011	4080	0.0000000	0.0000000
32	110.1250000	10.0	1175	2896	144054	2051	3760688029	4071	0.0000000	0.0000000
* end: 03/03/2023 12:33:50
