* begin:	03/03/2023 13:24:36
* script file:	D:\data\Cycle 192\exp_3-16-13\rawdata\sc\ifg_vs_aperturY.cfg
*
[STANDARD]
		
[ifg_vs_aperturY]
	created 03/03/2023   11:33
[MOTOR]
	S18.axis2.Aperture Y	1	mm	absolute	1.00000				
[SCAN]
	file path	.
	name		ifg_vs_aperturY_0
	category	standard
	# repeats	1
	notes		room to enter remarks
[SUBSCAN]
	S18.axis2.phase shifter	32	deg	107.800000	110.125000	0.075000	0.100000	FALSE	time	10.000000			
[ENDSCAN]
[MOTOR]
	S18.axis2.Aperture Y	1	mm	absolute	2.00000				
[SCAN]
	file path	.
	name		ifg_vs_aperturY_1
	category	standard
	# repeats	1
	notes		room to enter remarks
[SUBSCAN]
	S18.axis2.phase shifter	32	deg	107.800000	110.125000	0.075000	0.100000	FALSE	time	10.000000			
[ENDSCAN]
[MOTOR]
	S18.axis2.Aperture Y	1	mm	absolute	3.00000				
[SCAN]
	file path	.
	name		ifg_vs_aperturY_2
	category	standard
	# repeats	1
	notes		room to enter remarks
[SUBSCAN]
	S18.axis2.phase shifter	32	deg	107.800000	110.125000	0.075000	0.100000	FALSE	time	10.000000			
[ENDSCAN]
[MOTOR]
	S18.axis2.Aperture Y	1	mm	absolute	4.00000				
[SCAN]
	file path	.
	name		ifg_vs_aperturY_3
	category	standard
	# repeats	1
	notes		room to enter remarks
[SUBSCAN]
	S18.axis2.phase shifter	32	deg	107.800000	110.125000	0.075000	0.100000	FALSE	time	10.000000			
[ENDSCAN]
[MOTOR]
	S18.axis2.Aperture Y	1	mm	absolute	5.00000				
[SCAN]
	file path	.
	name		ifg_vs_aperturY_4
	category	standard
	# repeats	1
	notes		room to enter remarks
[SUBSCAN]
	S18.axis2.phase shifter	32	deg	107.800000	110.125000	0.075000	0.100000	FALSE	time	10.000000			
[ENDSCAN]
[MOTOR]
	S18.axis2.Aperture Y	1	mm	absolute	6.00000				
[SCAN]
	file path	.
	name		ifg_vs_aperturY_5
	category	standard
	# repeats	1
	notes		room to enter remarks
[SUBSCAN]
	S18.axis2.phase shifter	32	deg	107.800000	110.125000	0.075000	0.100000	FALSE	time	10.000000			
[ENDSCAN]
[END]

* remarks:	room to enter remarks
*
1	107.7939453	10.0	1610	2444	143961	1909	3760691095	4054	0.0000000	0.0000000
2	107.8750000	10.0	1800	2126	141909	1948	3760691113	3926	0.0000000	0.0000000
3	107.9497070	10.0	2012	1992	143901	1886	3760691130	4004	0.0000000	0.0000000
4	108.0249023	10.0	1967	1995	144944	1861	3760691148	3962	0.0000000	0.0000000
5	108.0996094	10.0	1632	2360	141634	1899	3760691166	3992	0.0000000	0.0000000
6	108.1752930	10.0	1116	2873	142957	2054	3760691184	3989	0.0000000	0.0000000
7	108.2500000	10.0	802	3343	145349	1850	3760691201	4145	0.0000000	0.0000000
8	108.3251953	10.0	492	3481	143120	1983	3760691219	3973	0.0000000	0.0000000
9	108.3999023	10.0	568	3371	144225	1983	3760691237	3939	0.0000000	0.0000000
10	108.4750977	10.0	899	3162	143321	1964	3760691255	4061	0.0000000	0.0000000
11	108.5502930	10.0	1330	2569	145082	1930	3760691272	3899	0.0000000	0.0000000
12	108.6250000	10.0	1737	2272	144071	1872	3760691290	4009	0.0000000	0.0000000
13	108.6997070	10.0	2040	1913	144754	1913	3760691308	3953	0.0000000	0.0000000
14	108.7749023	10.0	2141	1859	143889	1908	3760691325	4000	0.0000000	0.0000000
15	108.8500977	10.0	1889	2146	143477	1976	3760691343	4035	0.0000000	0.0000000
16	108.9252930	10.0	1412	2621	142491	1938	3760691361	4033	0.0000000	0.0000000
17	109.0000000	10.0	950	3092	142651	1898	3760691379	4042	0.0000000	0.0000000
18	109.0751953	10.0	592	3498	143958	1866	3760691396	4090	0.0000000	0.0000000
19	109.1499023	10.0	473	3608	143048	1940	3760691414	4081	0.0000000	0.0000000
20	109.2250977	10.0	584	3407	143266	1915	3760691432	3991	0.0000000	0.0000000
21	109.2998047	10.0	1028	2911	145381	1918	3760691449	3939	0.0000000	0.0000000
22	109.3750000	10.0	1476	2528	143256	1912	3760691467	4004	0.0000000	0.0000000
23	109.4501953	10.0	1958	1984	141794	1927	3760691485	3942	0.0000000	0.0000000
24	109.5249023	10.0	2122	1745	143564	1943	3760691503	3867	0.0000000	0.0000000
25	109.6000977	10.0	2001	1925	142308	2069	3760691520	3926	0.0000000	0.0000000
26	109.6748047	10.0	1659	2372	144248	1918	3760691538	4031	0.0000000	0.0000000
27	109.7504883	10.0	1297	2757	144738	1944	3760691556	4054	0.0000000	0.0000000
28	109.8247070	10.0	869	3155	144379	2033	3760691574	4024	0.0000000	0.0000000
29	109.8999023	10.0	655	3445	144319	1954	3760691592	4100	0.0000000	0.0000000
30	109.9750977	10.0	554	3481	144113	1996	3760691609	4035	0.0000000	0.0000000
31	110.0498047	10.0	881	3172	143498	1929	3760691627	4053	0.0000000	0.0000000
32	110.1250000	10.0	1261	2814	145755	1916	3760691645	4075	0.0000000	0.0000000
* end: 03/03/2023 13:34:06
