* begin:	03/03/2023 11:23:19
* script file:	D:\data\Cycle 192\exp_3-16-13\rawdata\sc\ifg_vs_aperturY.cfg
*
[STANDARD]
		
[ifg_vs_aperturY]
	created 03/03/2023   11:20
[MOTOR]
	S18.axis2.Aperture Y	1	mm	absolute	1.00000				
[SCAN]
	file path	.
	name		_0
	category	standard
	# repeats	1
	notes		room to enter remarks
[SUBSCAN]
	S18.axis2.phase shifter	32	deg	107.800000	110.125000	0.075000	0.100000	FALSE	time	10.000000			
[ENDSCAN]
[MOTOR]
	S18.axis2.Aperture Y	1	mm	absolute	2.00000				
[SCAN]
	file path	.
	name		_1
	category	standard
	# repeats	1
	notes		room to enter remarks
[SUBSCAN]
	S18.axis2.phase shifter	32	deg	107.800000	110.125000	0.075000	0.100000	FALSE	time	10.000000			
[ENDSCAN]
[MOTOR]
	S18.axis2.Aperture Y	1	mm	absolute	3.00000				
[SCAN]
	file path	.
	name		_2
	category	standard
	# repeats	1
	notes		room to enter remarks
[SUBSCAN]
	S18.axis2.phase shifter	32	deg	107.800000	110.125000	0.075000	0.100000	FALSE	time	10.000000			
[ENDSCAN]
[MOTOR]
	S18.axis2.Aperture Y	1	mm	absolute	4.00000				
[SCAN]
	file path	.
	name		_3
	category	standard
	# repeats	1
	notes		room to enter remarks
[SUBSCAN]
	S18.axis2.phase shifter	32	deg	107.800000	110.125000	0.075000	0.100000	FALSE	time	10.000000			
[ENDSCAN]
[MOTOR]
	S18.axis2.Aperture Y	1	mm	absolute	5.00000				
[SCAN]
	file path	.
	name		_4
	category	standard
	# repeats	1
	notes		room to enter remarks
[SUBSCAN]
	S18.axis2.phase shifter	32	deg	107.800000	110.125000	0.075000	0.100000	FALSE	time	10.000000			
[ENDSCAN]
[MOTOR]
	S18.axis2.Aperture Y	1	mm	absolute	6.00000				
[SCAN]
	file path	.
	name		_5
	category	standard
	# repeats	1
	notes		room to enter remarks
[SUBSCAN]
	S18.axis2.phase shifter	32	deg	107.800000	110.125000	0.075000	0.100000	FALSE	time	10.000000			
[ENDSCAN]
[END]

* remarks:	room to enter remarks
*
1	107.7939453	10.0	1986	2830	167600	2247	3760683818	4816	0.0000000	0.0000000
2	107.8750000	10.0	2331	2491	166792	2248	3760683836	4822	0.0000000	0.0000000
3	107.9497070	10.0	2583	2072	167937	2235	3760683854	4655	0.0000000	0.0000000
4	108.0249023	10.0	2572	2238	167509	2208	3760683872	4810	0.0000000	0.0000000
5	108.0996094	10.0	2228	2575	168912	2219	3760683889	4803	0.0000000	0.0000000
6	108.1752930	10.0	1675	3074	168593	2310	3760683907	4749	0.0000000	0.0000000
7	108.2500000	10.0	1165	3695	167872	2183	3760683925	4860	0.0000000	0.0000000
8	108.3251953	10.0	805	4122	168555	2116	3760683943	4927	0.0000000	0.0000000
9	108.3999023	10.0	717	4158	167368	2151	3760683960	4875	0.0000000	0.0000000
10	108.4750977	10.0	1030	3803	167729	2255	3760683978	4833	0.0000000	0.0000000
11	108.5502930	10.0	1475	3281	167896	2230	3760683996	4756	0.0000000	0.0000000
12	108.6250000	10.0	2081	2746	167910	2226	3760684013	4827	0.0000000	0.0000000
13	108.6997070	10.0	2546	2234	167942	2192	3760684031	4780	0.0000000	0.0000000
14	108.7749023	10.0	2677	2097	168611	2186	3760684049	4774	0.0000000	0.0000000
15	108.8500977	10.0	2551	2225	168939	2162	3760684067	4776	0.0000000	0.0000000
16	108.9257812	10.0	2105	2697	168886	2254	3760684084	4802	0.0000000	0.0000000
17	109.0000000	10.0	1412	3454	169008	2144	3760684102	4866	0.0000000	0.0000000
18	109.0751953	10.0	1266	3508	168491	2239	3760684120	4774	0.0000000	0.0000000
19	109.1499023	10.0	479	4417	168054	2181	3760684138	4896	0.0000000	0.0000000
20	109.2250977	10.0	670	4198	167255	2226	3760684155	4868	0.0000000	0.0000000
21	109.2998047	10.0	1123	3698	167805	2148	3760684173	4821	0.0000000	0.0000000
22	109.3750000	10.0	1791	3002	168817	2189	3760684191	4793	0.0000000	0.0000000
23	109.4501953	10.0	2349	2362	168246	2263	3760684209	4711	0.0000000	0.0000000
24	109.5249023	10.0	2760	1993	169139	2279	3760684226	4753	0.0000000	0.0000000
25	109.6000977	10.0	2692	1978	170578	2199	3760684244	4670	0.0000000	0.0000000
26	109.6748047	10.0	2320	2305	166513	2201	3760684262	4625	0.0000000	0.0000000
27	109.7504883	10.0	1642	3020	170238	2195	3760684279	4662	0.0000000	0.0000000
28	109.8247070	10.0	1201	3562	168357	2188	3760684297	4763	0.0000000	0.0000000
29	109.8999023	10.0	826	4068	168483	2188	3760684315	4894	0.0000000	0.0000000
30	109.9750977	10.0	662	4295	167539	2222	3760684333	4957	0.0000000	0.0000000
31	110.0498047	10.0	924	3922	167711	2178	3760684350	4846	0.0000000	0.0000000
32	110.1250000	10.0	1434	3388	166813	2260	3760684368	4822	0.0000000	0.0000000
* end: 03/03/2023 11:32:49
