* begin:	03/03/2023 12:44:29
* script file:	D:\data\Cycle 192\exp_3-16-13\rawdata\sc\ifg_vs_aperturY.cfg
*
[STANDARD]
		
[ifg_vs_aperturY]
	created 03/03/2023   11:33
[MOTOR]
	S18.axis2.Aperture Y	1	mm	absolute	1.00000				
[SCAN]
	file path	.
	name		ifg_vs_aperturY_0
	category	standard
	# repeats	1
	notes		room to enter remarks
[SUBSCAN]
	S18.axis2.phase shifter	32	deg	107.800000	110.125000	0.075000	0.100000	FALSE	time	10.000000			
[ENDSCAN]
[MOTOR]
	S18.axis2.Aperture Y	1	mm	absolute	2.00000				
[SCAN]
	file path	.
	name		ifg_vs_aperturY_1
	category	standard
	# repeats	1
	notes		room to enter remarks
[SUBSCAN]
	S18.axis2.phase shifter	32	deg	107.800000	110.125000	0.075000	0.100000	FALSE	time	10.000000			
[ENDSCAN]
[MOTOR]
	S18.axis2.Aperture Y	1	mm	absolute	3.00000				
[SCAN]
	file path	.
	name		ifg_vs_aperturY_2
	category	standard
	# repeats	1
	notes		room to enter remarks
[SUBSCAN]
	S18.axis2.phase shifter	32	deg	107.800000	110.125000	0.075000	0.100000	FALSE	time	10.000000			
[ENDSCAN]
[MOTOR]
	S18.axis2.Aperture Y	1	mm	absolute	4.00000				
[SCAN]
	file path	.
	name		ifg_vs_aperturY_3
	category	standard
	# repeats	1
	notes		room to enter remarks
[SUBSCAN]
	S18.axis2.phase shifter	32	deg	107.800000	110.125000	0.075000	0.100000	FALSE	time	10.000000			
[ENDSCAN]
[MOTOR]
	S18.axis2.Aperture Y	1	mm	absolute	5.00000				
[SCAN]
	file path	.
	name		ifg_vs_aperturY_4
	category	standard
	# repeats	1
	notes		room to enter remarks
[SUBSCAN]
	S18.axis2.phase shifter	32	deg	107.800000	110.125000	0.075000	0.100000	FALSE	time	10.000000			
[ENDSCAN]
[MOTOR]
	S18.axis2.Aperture Y	1	mm	absolute	6.00000				
[SCAN]
	file path	.
	name		ifg_vs_aperturY_5
	category	standard
	# repeats	1
	notes		room to enter remarks
[SUBSCAN]
	S18.axis2.phase shifter	32	deg	107.800000	110.125000	0.075000	0.100000	FALSE	time	10.000000			
[ENDSCAN]
[END]

* remarks:	room to enter remarks
*
1	107.7939453	10.0	2117	2732	144667	2287	3760688688	4849	0.0000000	0.0000000
2	107.8750000	10.0	2491	2235	143598	2413	3760688705	4726	0.0000000	0.0000000
3	107.9497070	10.0	2684	2071	144777	2244	3760688723	4755	0.0000000	0.0000000
4	108.0249023	10.0	2533	2276	142589	2410	3760688741	4809	0.0000000	0.0000000
5	108.0996094	10.0	1958	2914	143134	2296	3760688758	4872	0.0000000	0.0000000
6	108.1752930	10.0	1435	3425	143579	2255	3760688776	4860	0.0000000	0.0000000
7	108.2500000	10.0	885	3855	143694	2278	3760688794	4740	0.0000000	0.0000000
8	108.3251953	10.0	777	4085	145315	2366	3760688811	4862	0.0000000	0.0000000
9	108.3999023	10.0	674	4124	143119	2299	3760688829	4798	0.0000000	0.0000000
10	108.4750977	10.0	1151	3685	144074	2281	3760688847	4836	0.0000000	0.0000000
11	108.5502930	10.0	1722	3195	141637	2303	3760688865	4917	0.0000000	0.0000000
12	108.6250000	10.0	2396	2450	144560	2309	3760688883	4846	0.0000000	0.0000000
13	108.6997070	10.0	2672	2167	143471	2302	3760688900	4839	0.0000000	0.0000000
14	108.7749023	10.0	2818	2032	142790	2303	3760688918	4850	0.0000000	0.0000000
15	108.8500977	10.0	2333	2452	143493	2248	3760688936	4785	0.0000000	0.0000000
16	108.9252930	10.0	1755	3087	143991	2349	3760688954	4842	0.0000000	0.0000000
17	109.0000000	10.0	1172	3803	143301	2267	3760688971	4975	0.0000000	0.0000000
18	109.0751953	10.0	695	4300	144056	2298	3760688989	4995	0.0000000	0.0000000
19	109.1499023	10.0	522	4561	144812	2326	3760689007	5083	0.0000000	0.0000000
20	109.2250977	10.0	704	4057	145274	2297	3760689025	4761	0.0000000	0.0000000
21	109.2998047	10.0	1204	3642	143889	2304	3760689043	4846	0.0000000	0.0000000
22	109.3750000	10.0	1976	2982	144480	2226	3760689060	4958	0.0000000	0.0000000
23	109.4501953	10.0	2469	2357	143178	2281	3760689078	4826	0.0000000	0.0000000
24	109.5249023	10.0	2727	2171	143395	2294	3760689096	4898	0.0000000	0.0000000
25	109.6000977	10.0	2686	2147	144314	2277	3760689113	4833	0.0000000	0.0000000
26	109.6748047	10.0	2244	2547	143464	2367	3760689131	4791	0.0000000	0.0000000
27	109.7504883	10.0	1581	3305	144018	2237	3760689148	4886	0.0000000	0.0000000
28	109.8247070	10.0	932	4043	144088	2239	3760689166	4975	0.0000000	0.0000000
29	109.8999023	10.0	503	4239	144975	2263	3760689184	4742	0.0000000	0.0000000
30	109.9750977	10.0	724	4175	142844	2314	3760689202	4899	0.0000000	0.0000000
31	110.0498047	10.0	1065	3870	144306	2339	3760689219	4935	0.0000000	0.0000000
32	110.1250000	10.0	1675	3168	143179	2335	3760689237	4843	0.0000000	0.0000000
* end: 03/03/2023 12:53:58
