* begin:	03/03/2023 13:14:34
* script file:	D:\data\Cycle 192\exp_3-16-13\rawdata\sc\ifg_vs_aperturY.cfg
*
[STANDARD]
		
[ifg_vs_aperturY]
	created 03/03/2023   11:33
[MOTOR]
	S18.axis2.Aperture Y	1	mm	absolute	1.00000				
[SCAN]
	file path	.
	name		ifg_vs_aperturY_0
	category	standard
	# repeats	1
	notes		room to enter remarks
[SUBSCAN]
	S18.axis2.phase shifter	32	deg	107.800000	110.125000	0.075000	0.100000	FALSE	time	10.000000			
[ENDSCAN]
[MOTOR]
	S18.axis2.Aperture Y	1	mm	absolute	2.00000				
[SCAN]
	file path	.
	name		ifg_vs_aperturY_1
	category	standard
	# repeats	1
	notes		room to enter remarks
[SUBSCAN]
	S18.axis2.phase shifter	32	deg	107.800000	110.125000	0.075000	0.100000	FALSE	time	10.000000			
[ENDSCAN]
[MOTOR]
	S18.axis2.Aperture Y	1	mm	absolute	3.00000				
[SCAN]
	file path	.
	name		ifg_vs_aperturY_2
	category	standard
	# repeats	1
	notes		room to enter remarks
[SUBSCAN]
	S18.axis2.phase shifter	32	deg	107.800000	110.125000	0.075000	0.100000	FALSE	time	10.000000			
[ENDSCAN]
[MOTOR]
	S18.axis2.Aperture Y	1	mm	absolute	4.00000				
[SCAN]
	file path	.
	name		ifg_vs_aperturY_3
	category	standard
	# repeats	1
	notes		room to enter remarks
[SUBSCAN]
	S18.axis2.phase shifter	32	deg	107.800000	110.125000	0.075000	0.100000	FALSE	time	10.000000			
[ENDSCAN]
[MOTOR]
	S18.axis2.Aperture Y	1	mm	absolute	5.00000				
[SCAN]
	file path	.
	name		ifg_vs_aperturY_4
	category	standard
	# repeats	1
	notes		room to enter remarks
[SUBSCAN]
	S18.axis2.phase shifter	32	deg	107.800000	110.125000	0.075000	0.100000	FALSE	time	10.000000			
[ENDSCAN]
[MOTOR]
	S18.axis2.Aperture Y	1	mm	absolute	6.00000				
[SCAN]
	file path	.
	name		ifg_vs_aperturY_5
	category	standard
	# repeats	1
	notes		room to enter remarks
[SUBSCAN]
	S18.axis2.phase shifter	32	deg	107.800000	110.125000	0.075000	0.100000	FALSE	time	10.000000			
[ENDSCAN]
[END]

* remarks:	room to enter remarks
*
1	107.7939453	10.0	1804	2533	142880	2180	3760690493	4337	0.0000000	0.0000000
2	107.8750000	10.0	2293	2132	143305	2280	3760690511	4425	0.0000000	0.0000000
3	107.9497070	10.0	2241	2043	142266	2143	3760690528	4284	0.0000000	0.0000000
4	108.0249023	10.0	2109	2247	142698	2268	3760690546	4356	0.0000000	0.0000000
5	108.0996094	10.0	1776	2518	143633	2091	3760690564	4294	0.0000000	0.0000000
6	108.1752930	10.0	1368	3044	142475	2182	3760690582	4412	0.0000000	0.0000000
7	108.2500000	10.0	761	3621	141595	2170	3760690600	4382	0.0000000	0.0000000
8	108.3251953	10.0	498	3810	141558	2211	3760690617	4308	0.0000000	0.0000000
9	108.3999023	10.0	561	3912	142011	2135	3760690635	4473	0.0000000	0.0000000
10	108.4750977	10.0	915	3373	142734	2175	3760690653	4288	0.0000000	0.0000000
11	108.5502930	10.0	1529	2819	142788	2243	3760690671	4348	0.0000000	0.0000000
12	108.6250000	10.0	2037	2218	140578	2179	3760690689	4255	0.0000000	0.0000000
13	108.6997070	10.0	2303	2050	143258	2056	3760690706	4353	0.0000000	0.0000000
14	108.7749023	10.0	2329	2037	141041	2187	3760690724	4366	0.0000000	0.0000000
15	108.8500977	10.0	2102	2206	140647	2160	3760690742	4308	0.0000000	0.0000000
16	108.9252930	10.0	1582	2894	143570	2110	3760690759	4476	0.0000000	0.0000000
17	109.0000000	10.0	951	3282	141524	2220	3760690777	4233	0.0000000	0.0000000
18	109.0751953	10.0	623	3678	142478	2131	3760690795	4301	0.0000000	0.0000000
19	109.1499023	10.0	514	3831	143428	2204	3760690812	4345	0.0000000	0.0000000
20	109.2250977	10.0	709	3704	143705	2114	3760690830	4413	0.0000000	0.0000000
21	109.2998047	10.0	1100	3185	144987	2221	3760690848	4285	0.0000000	0.0000000
22	109.3750000	10.0	1587	2714	141951	2212	3760690865	4301	0.0000000	0.0000000
23	109.4501953	10.0	2085	2191	143645	2208	3760690883	4276	0.0000000	0.0000000
24	109.5249023	10.0	2477	1954	143891	2124	3760690901	4431	0.0000000	0.0000000
25	109.6000977	10.0	2328	1923	145200	2178	3760690919	4251	0.0000000	0.0000000
26	109.6748047	10.0	1871	2551	143850	2197	3760690936	4422	0.0000000	0.0000000
27	109.7504883	10.0	1304	3014	144730	2177	3760690954	4318	0.0000000	0.0000000
28	109.8247070	10.0	906	3466	143424	2136	3760690972	4372	0.0000000	0.0000000
29	109.8999023	10.0	602	3837	142043	2077	3760690990	4439	0.0000000	0.0000000
30	109.9750977	10.0	576	3672	144391	2144	3760691007	4248	0.0000000	0.0000000
31	110.0498047	10.0	891	3313	143272	2104	3760691025	4204	0.0000000	0.0000000
32	110.1250000	10.0	1400	2926	144408	2208	3760691042	4326	0.0000000	0.0000000
* end: 03/03/2023 13:24:04
