* begin:	03/03/2023 13:04:32
* script file:	D:\data\Cycle 192\exp_3-16-13\rawdata\sc\ifg_vs_aperturY.cfg
*
[STANDARD]
		
[ifg_vs_aperturY]
	created 03/03/2023   11:33
[MOTOR]
	S18.axis2.Aperture Y	1	mm	absolute	1.00000				
[SCAN]
	file path	.
	name		ifg_vs_aperturY_0
	category	standard
	# repeats	1
	notes		room to enter remarks
[SUBSCAN]
	S18.axis2.phase shifter	32	deg	107.800000	110.125000	0.075000	0.100000	FALSE	time	10.000000			
[ENDSCAN]
[MOTOR]
	S18.axis2.Aperture Y	1	mm	absolute	2.00000				
[SCAN]
	file path	.
	name		ifg_vs_aperturY_1
	category	standard
	# repeats	1
	notes		room to enter remarks
[SUBSCAN]
	S18.axis2.phase shifter	32	deg	107.800000	110.125000	0.075000	0.100000	FALSE	time	10.000000			
[ENDSCAN]
[MOTOR]
	S18.axis2.Aperture Y	1	mm	absolute	3.00000				
[SCAN]
	file path	.
	name		ifg_vs_aperturY_2
	category	standard
	# repeats	1
	notes		room to enter remarks
[SUBSCAN]
	S18.axis2.phase shifter	32	deg	107.800000	110.125000	0.075000	0.100000	FALSE	time	10.000000			
[ENDSCAN]
[MOTOR]
	S18.axis2.Aperture Y	1	mm	absolute	4.00000				
[SCAN]
	file path	.
	name		ifg_vs_aperturY_3
	category	standard
	# repeats	1
	notes		room to enter remarks
[SUBSCAN]
	S18.axis2.phase shifter	32	deg	107.800000	110.125000	0.075000	0.100000	FALSE	time	10.000000			
[ENDSCAN]
[MOTOR]
	S18.axis2.Aperture Y	1	mm	absolute	5.00000				
[SCAN]
	file path	.
	name		ifg_vs_aperturY_4
	category	standard
	# repeats	1
	notes		room to enter remarks
[SUBSCAN]
	S18.axis2.phase shifter	32	deg	107.800000	110.125000	0.075000	0.100000	FALSE	time	10.000000			
[ENDSCAN]
[MOTOR]
	S18.axis2.Aperture Y	1	mm	absolute	6.00000				
[SCAN]
	file path	.
	name		ifg_vs_aperturY_5
	category	standard
	# repeats	1
	notes		room to enter remarks
[SUBSCAN]
	S18.axis2.phase shifter	32	deg	107.800000	110.125000	0.075000	0.100000	FALSE	time	10.000000			
[ENDSCAN]
[END]

* remarks:	room to enter remarks
*
1	107.7939453	10.0	2014	2640	142891	2307	3760689891	4654	0.0000000	0.0000000
2	107.8750000	10.0	2411	2237	141435	2389	3760689909	4648	0.0000000	0.0000000
3	107.9497070	10.0	2293	2208	144339	2361	3760689927	4501	0.0000000	0.0000000
4	108.0249023	10.0	2265	2241	142090	2449	3760689944	4506	0.0000000	0.0000000
5	108.0996094	10.0	1866	2700	142575	2265	3760689962	4566	0.0000000	0.0000000
6	108.1752930	10.0	1402	3400	142970	2391	3760689980	4802	0.0000000	0.0000000
7	108.2500000	10.0	907	3778	142520	2359	3760689997	4685	0.0000000	0.0000000
8	108.3251953	10.0	555	4157	144921	2334	3760690015	4712	0.0000000	0.0000000
9	108.3999023	10.0	591	4076	144359	2262	3760690033	4667	0.0000000	0.0000000
10	108.4750977	10.0	1101	3557	142557	2320	3760690050	4658	0.0000000	0.0000000
11	108.5502930	10.0	1599	2915	141339	2396	3760690068	4514	0.0000000	0.0000000
12	108.6250000	10.0	2328	2390	142321	2406	3760690086	4718	0.0000000	0.0000000
13	108.6997070	10.0	2435	2193	142079	2315	3760690103	4628	0.0000000	0.0000000
14	108.7749023	10.0	2555	2058	141453	2386	3760690121	4613	0.0000000	0.0000000
15	108.8500977	10.0	2191	2395	142001	2308	3760690139	4586	0.0000000	0.0000000
16	108.9252930	10.0	1753	2964	142969	2297	3760690157	4717	0.0000000	0.0000000
17	109.0000000	10.0	1009	3646	140836	2268	3760690174	4655	0.0000000	0.0000000
18	109.0751953	10.0	559	4174	142328	2332	3760690192	4733	0.0000000	0.0000000
19	109.1499023	10.0	526	3938	143538	2359	3760690210	4464	0.0000000	0.0000000
20	109.2250977	10.0	752	3844	142874	2384	3760690227	4596	0.0000000	0.0000000
21	109.2998047	10.0	1196	3410	143636	2381	3760690245	4606	0.0000000	0.0000000
22	109.3750000	10.0	1788	2955	143415	2339	3760690263	4743	0.0000000	0.0000000
23	109.4501953	10.0	2287	2265	142862	2349	3760690281	4552	0.0000000	0.0000000
24	109.5249023	10.0	2554	1944	140640	2269	3760690298	4498	0.0000000	0.0000000
25	109.6000977	10.0	2507	2038	141519	2232	3760690316	4545	0.0000000	0.0000000
26	109.6748047	10.0	1974	2695	141092	2354	3760690334	4669	0.0000000	0.0000000
27	109.7504883	10.0	1441	3164	141587	2336	3760690351	4605	0.0000000	0.0000000
28	109.8251953	10.0	902	3710	141441	2297	3760690369	4612	0.0000000	0.0000000
29	109.8999023	10.0	561	4076	141993	2376	3760690387	4637	0.0000000	0.0000000
30	109.9750977	10.0	559	3951	142885	2408	3760690405	4510	0.0000000	0.0000000
31	110.0498047	10.0	939	3631	142436	2336	3760690422	4570	0.0000000	0.0000000
32	110.1250000	10.0	1471	3120	142875	2407	3760690440	4591	0.0000000	0.0000000
* end: 03/03/2023 13:14:01
