* begin:	03/03/2023 11:44:13
* script file:	D:\data\Cycle 192\exp_3-16-13\rawdata\sc\ifg_vs_aperturY.cfg
*
[STANDARD]
		
[ifg_vs_aperturY]
	created 03/03/2023   11:33
[MOTOR]
	S18.axis2.Aperture Y	1	mm	absolute	1.00000				
[SCAN]
	file path	.
	name		ifg_vs_aperturY_0
	category	standard
	# repeats	1
	notes		room to enter remarks
[SUBSCAN]
	S18.axis2.phase shifter	32	deg	107.800000	110.125000	0.075000	0.100000	FALSE	time	10.000000			
[ENDSCAN]
[MOTOR]
	S18.axis2.Aperture Y	1	mm	absolute	2.00000				
[SCAN]
	file path	.
	name		ifg_vs_aperturY_1
	category	standard
	# repeats	1
	notes		room to enter remarks
[SUBSCAN]
	S18.axis2.phase shifter	32	deg	107.800000	110.125000	0.075000	0.100000	FALSE	time	10.000000			
[ENDSCAN]
[MOTOR]
	S18.axis2.Aperture Y	1	mm	absolute	3.00000				
[SCAN]
	file path	.
	name		ifg_vs_aperturY_2
	category	standard
	# repeats	1
	notes		room to enter remarks
[SUBSCAN]
	S18.axis2.phase shifter	32	deg	107.800000	110.125000	0.075000	0.100000	FALSE	time	10.000000			
[ENDSCAN]
[MOTOR]
	S18.axis2.Aperture Y	1	mm	absolute	4.00000				
[SCAN]
	file path	.
	name		ifg_vs_aperturY_3
	category	standard
	# repeats	1
	notes		room to enter remarks
[SUBSCAN]
	S18.axis2.phase shifter	32	deg	107.800000	110.125000	0.075000	0.100000	FALSE	time	10.000000			
[ENDSCAN]
[MOTOR]
	S18.axis2.Aperture Y	1	mm	absolute	5.00000				
[SCAN]
	file path	.
	name		ifg_vs_aperturY_4
	category	standard
	# repeats	1
	notes		room to enter remarks
[SUBSCAN]
	S18.axis2.phase shifter	32	deg	107.800000	110.125000	0.075000	0.100000	FALSE	time	10.000000			
[ENDSCAN]
[MOTOR]
	S18.axis2.Aperture Y	1	mm	absolute	6.00000				
[SCAN]
	file path	.
	name		ifg_vs_aperturY_5
	category	standard
	# repeats	1
	notes		room to enter remarks
[SUBSCAN]
	S18.axis2.phase shifter	32	deg	107.800000	110.125000	0.075000	0.100000	FALSE	time	10.000000			
[ENDSCAN]
[END]

* remarks:	room to enter remarks
*
1	107.7939453	10.0	2008	2818	167747	2317	3760685072	4826	0.0000000	0.0000000
2	107.8750000	10.0	2511	2335	168505	2355	3760685089	4846	0.0000000	0.0000000
3	107.9497070	10.0	2441	2322	166500	2328	3760685107	4763	0.0000000	0.0000000
4	108.0249023	10.0	2607	2198	166809	2294	3760685125	4805	0.0000000	0.0000000
5	108.0996094	10.0	2145	2721	165873	2313	3760685142	4866	0.0000000	0.0000000
6	108.1752930	10.0	1605	3315	165646	2370	3760685160	4920	0.0000000	0.0000000
7	108.2500000	10.0	1078	4009	167167	2319	3760685178	5087	0.0000000	0.0000000
8	108.3251953	10.0	614	4321	166650	2306	3760685196	4935	0.0000000	0.0000000
9	108.3999023	10.0	621	4267	166687	2281	3760685213	4888	0.0000000	0.0000000
10	108.4750977	10.0	1047	3797	166920	2366	3760685231	4844	0.0000000	0.0000000
11	108.5502930	10.0	1563	3374	167309	2380	3760685249	4937	0.0000000	0.0000000
12	108.6250000	10.0	2033	2859	167253	2350	3760685267	4892	0.0000000	0.0000000
13	108.6997070	10.0	2714	2160	166317	2309	3760685284	4874	0.0000000	0.0000000
14	108.7749023	10.0	2833	2070	167252	2362	3760685302	4903	0.0000000	0.0000000
15	108.8500977	10.0	2491	2312	168226	2324	3760685320	4803	0.0000000	0.0000000
16	108.9252930	10.0	1842	3097	166127	2343	3760685337	4939	0.0000000	0.0000000
17	109.0000000	10.0	1284	3690	167274	2388	3760685355	4974	0.0000000	0.0000000
18	109.0751953	10.0	773	4248	166460	2323	3760685373	5021	0.0000000	0.0000000
19	109.1499023	10.0	511	4412	166055	2291	3760685391	4923	0.0000000	0.0000000
20	109.2250977	10.0	619	4474	167805	2315	3760685408	5093	0.0000000	0.0000000
21	109.2998047	10.0	1197	3725	168177	2345	3760685426	4922	0.0000000	0.0000000
22	109.3750000	10.0	1869	3123	167809	2326	3760685444	4992	0.0000000	0.0000000
23	109.4501953	10.0	2321	2515	165338	2296	3760685461	4836	0.0000000	0.0000000
24	109.5249023	10.0	2887	2013	166339	2324	3760685479	4900	0.0000000	0.0000000
25	109.6000977	10.0	2679	2177	167534	2323	3760685497	4856	0.0000000	0.0000000
26	109.6748047	10.0	2359	2479	166362	2316	3760685514	4838	0.0000000	0.0000000
27	109.7504883	10.0	1644	3261	166628	2235	3760685532	4905	0.0000000	0.0000000
28	109.8247070	10.0	1228	3753	167022	2381	3760685550	4981	0.0000000	0.0000000
29	109.8999023	10.0	701	4293	167108	2285	3760685568	4994	0.0000000	0.0000000
30	109.9750977	10.0	516	4425	148594	2393	3760685585	4941	0.0000000	0.0000000
31	110.0498047	10.0	906	3976	145332	2303	3760685603	4882	0.0000000	0.0000000
32	110.1250000	10.0	1586	3467	143842	2306	3760685621	5053	0.0000000	0.0000000
* end: 03/03/2023 11:53:42
