# ps_pos exposure_time(s) O-Beam H-Beam Monitor AUX-Beam time(s) O+H+AUX encod1 encod2
1 -1.856690 30.0 1588 9111 93092 6594 3843109576 10699 0.000000 0.000000
2 -1.812744 30.0 1733 9004 93367 6538 3843109611 10737 0.000000 0.000000
3 -1.735840 30.0 2435 8507 92693 6589 3843109646 10942 0.000000 0.000000
4 -1.669922 30.0 3686 7234 93531 6586 3843109682 10920 0.000000 0.000000
5 -1.582031 30.0 5122 5767 93434 6372 3843109717 10889 0.000000 0.000000
6 -1.538086 30.0 6392 4895 93615 6513 3843109752 11287 0.000000 0.000000
7 -1.472168 30.0 7627 3650 93153 6543 3843109787 11277 0.000000 0.000000
8 -1.406250 30.0 8425 3124 93151 6478 3843109822 11549 0.000000 0.000000
9 -1.340332 30.0 8482 2944 93540 6667 3843109858 11426 0.000000 0.000000
10 -1.263428 30.0 8019 3479 92496 6490 3843109893 11498 0.000000 0.000000
11 -1.208496 30.0 7335 4112 93798 6650 3843109928 11447 0.000000 0.000000
12 -1.142578 30.0 5834 5184 93025 6581 3843109963 11018 0.000000 0.000000
13 -1.065674 30.0 4623 6345 93205 6356 3843109999 10968 0.000000 0.000000
14 -1.010742 30.0 3403 7363 93387 6453 3843110034 10766 0.000000 0.000000
15 -0.933838 30.0 2377 8258 92938 6515 3843110069 10635 0.000000 0.000000
16 -0.889893 30.0 1721 8920 93502 6524 3843110105 10641 0.000000 0.000000
17 -0.812988 30.0 1463 9007 93161 6472 3843110140 10470 0.000000 0.000000
18 -0.736084 30.0 1968 8613 92984 6421 3843110175 10581 0.000000 0.000000
19 -0.692139 30.0 2945 7809 93745 6457 3843110210 10754 0.000000 0.000000
20 -0.615234 30.0 4292 6562 93178 6493 3843110246 10854 0.000000 0.000000
21 -0.571289 30.0 5522 5609 93475 6539 3843110281 11131 0.000000 0.000000
22 -0.505371 30.0 6759 4361 93161 6359 3843110316 11120 0.000000 0.000000
23 -0.428467 30.0 7817 3493 93119 6495 3843110351 11310 0.000000 0.000000
24 -0.362549 30.0 8246 3104 93011 6623 3843110387 11350 0.000000 0.000000
25 -0.296631 30.0 8480 3000 92657 6520 3843110422 11480 0.000000 0.000000
26 -0.252686 30.0 8006 3236 93577 6428 3843110457 11242 0.000000 0.000000
27 -0.186768 30.0 7548 3874 93449 6315 3843110492 11422 0.000000 0.000000
28 -0.131836 30.0 6249 4990 93286 6487 3843110528 11239 0.000000 0.000000
29 -0.043945 30.0 4861 6117 93069 6515 3843110563 10978 0.000000 0.000000
30 0.000000 30.0 3906 6904 93208 6495 3843110598 10810 0.000000 0.000000
