# ps_pos exposure_time(s) O-Beam H-Beam Monitor AUX-Beam time(s) O+H+AUX encod1 encod2
1 -0.461426 30.0 1527 2178 71447 12363 3843569967 3705 0.000000 0.000000
2 -0.395508 30.0 2067 2075 71971 11972 3843570003 4142 0.000000 0.000000
3 -0.329590 30.0 2287 2118 71619 10991 3843570039 4405 0.000000 0.000000
4 -0.263672 30.0 2810 2650 71961 9738 3843570076 5460 0.000000 0.000000
5 -0.186768 30.0 2891 3190 71907 8195 3843570112 6081 0.000000 0.000000
6 -0.109863 30.0 3065 3998 71774 6426 3843570148 7063 0.000000 0.000000
7 -0.043945 30.0 2860 4814 71482 5453 3843570184 7674 0.000000 0.000000
8 0.021973 30.0 2479 5318 71853 4859 3843570220 7797 0.000000 0.000000
9 0.087891 30.0 2025 5789 71911 4863 3843570257 7814 0.000000 0.000000
10 0.153809 30.0 1674 5827 71826 5450 3843570293 7501 0.000000 0.000000
11 0.208740 30.0 1160 5654 72494 6083 3843570329 6814 0.000000 0.000000
12 0.274658 30.0 916 5200 71755 7567 3843570365 6116 0.000000 0.000000
13 0.340576 30.0 749 4611 72006 8891 3843570402 5360 0.000000 0.000000
14 0.395508 30.0 743 3748 72106 10415 3843570438 4491 0.000000 0.000000
15 0.461426 30.0 997 3094 71553 11586 3843570474 4091 0.000000 0.000000
16 0.538330 30.0 1231 2480 71674 11975 3843570510 3711 0.000000 0.000000
17 0.604248 30.0 1570 2159 72005 12182 3843570546 3729 0.000000 0.000000
18 0.659180 30.0 1793 2181 71862 11775 3843570582 3974 0.000000 0.000000
19 0.725098 30.0 2077 2458 72041 10621 3843570619 4535 0.000000 0.000000
20 0.791016 30.0 2252 3087 71720 9137 3843570655 5339 0.000000 0.000000
21 0.867920 30.0 2369 3868 72013 7755 3843570691 6237 0.000000 0.000000
22 0.922852 30.0 2213 4658 72030 6413 3843570728 6871 0.000000 0.000000
23 0.999756 30.0 2158 5346 72185 5254 3843570764 7504 0.000000 0.000000
24 1.065674 30.0 1670 5912 71963 4776 3843570800 7582 0.000000 0.000000
25 1.120605 30.0 1424 6364 71889 4844 3843570836 7788 0.000000 0.000000
26 1.175537 30.0 1148 6337 72150 5360 3843570872 7485 0.000000 0.000000
27 1.252441 30.0 933 5885 71515 6384 3843570909 6818 0.000000 0.000000
28 1.318359 30.0 910 5018 72215 7890 3843570945 5928 0.000000 0.000000
29 1.395264 30.0 948 4067 72475 9477 3843570981 5015 0.000000 0.000000
30 1.461182 30.0 1021 3383 72008 11078 3843571017 4404 0.000000 0.000000
31 1.494141 30.0 1239 2751 71962 11893 3843571053 3990 0.000000 0.000000
32 1.582031 30.0 1397 2309 71674 12287 3843571090 3706 0.000000 0.000000
