# ps_pos exposure_time(s) O-Beam H-Beam Monitor AUX-Beam time(s) O+H+AUX encod1 encod2
1 -1.658935 30.0 1293 2360 71276 12231 3843428430 3653 0.000000 0.000000
2 -1.614990 30.0 1313 2489 71323 11758 3843428465 3802 0.000000 0.000000
3 -1.549072 30.0 1293 2955 71690 10975 3843428500 4248 0.000000 0.000000
4 -1.483154 30.0 1175 3615 71321 9942 3843428536 4790 0.000000 0.000000
5 -1.439209 30.0 1228 4167 71723 8583 3843428571 5395 0.000000 0.000000
6 -1.362305 30.0 1237 5144 71547 7028 3843428606 6381 0.000000 0.000000
7 -1.296387 30.0 1242 5870 71968 5716 3843428641 7112 0.000000 0.000000
8 -1.241455 30.0 1200 6312 71526 4917 3843428676 7512 0.000000 0.000000
9 -1.186523 30.0 1175 6415 71184 4547 3843428712 7590 0.000000 0.000000
10 -1.120605 30.0 1123 6356 70968 4844 3843428747 7479 0.000000 0.000000
11 -1.043701 30.0 1117 5904 71370 5671 3843428782 7021 0.000000 0.000000
12 -0.977783 30.0 1164 5171 71346 6888 3843428817 6335 0.000000 0.000000
13 -0.922852 30.0 1148 4367 71573 8382 3843428852 5515 0.000000 0.000000
14 -0.856934 30.0 1188 3702 71272 9628 3843428888 4890 0.000000 0.000000
15 -0.780029 30.0 1194 2890 71978 10863 3843428923 4084 0.000000 0.000000
16 -0.714111 30.0 1234 2524 71256 11960 3843428958 3758 0.000000 0.000000
17 -0.648193 30.0 1259 2295 71491 12244 3843428993 3554 0.000000 0.000000
18 -0.604248 30.0 1240 2447 71284 12039 3843429029 3687 0.000000 0.000000
19 -0.527344 30.0 1285 2817 71140 11263 3843429064 4102 0.000000 0.000000
20 -0.461426 30.0 1280 3697 71658 9648 3843429099 4977 0.000000 0.000000
21 -0.395508 30.0 1268 4446 71379 8222 3843429135 5714 0.000000 0.000000
22 -0.318603 30.0 1200 5345 71660 6675 3843429170 6545 0.000000 0.000000
23 -0.252686 30.0 1172 5952 71553 5755 3843429205 7124 0.000000 0.000000
24 -0.186768 30.0 1183 6408 71510 5018 3843429240 7591 0.000000 0.000000
25 -0.120850 30.0 1167 6442 71036 4681 3843429276 7609 0.000000 0.000000
26 -0.065918 30.0 1139 6413 71083 5048 3843429311 7552 0.000000 0.000000
27 0.000000 30.0 1244 5820 71320 5790 3843429346 7064 0.000000 0.000000
28 0.065918 30.0 1111 5153 71725 6983 3843429381 6264 0.000000 0.000000
29 0.131836 30.0 1148 4185 71708 8679 3843429416 5333 0.000000 0.000000
30 0.197754 30.0 1157 3522 71785 9984 3843429452 4679 0.000000 0.000000
31 0.263672 30.0 1268 2939 71625 10966 3843429487 4207 0.000000 0.000000
32 0.318603 30.0 1257 2479 71540 11970 3843429522 3736 0.000000 0.000000
