# ps_pos exposure_time(s) O-Beam H-Beam Monitor AUX-Beam time(s) O+H+AUX encod1 encod2
1 -0.911865 30.0 1203 4536 71555 8182 3843426163 5739 0.000000 0.000000
2 -0.856934 30.0 1288 3643 70970 9837 3843426198 4931 0.000000 0.000000
3 -0.780029 30.0 1301 2901 71472 11169 3843426233 4202 0.000000 0.000000
4 -0.725098 30.0 1370 2512 72097 11893 3843426269 3882 0.000000 0.000000
5 -0.659180 30.0 1306 2312 71309 12320 3843426304 3618 0.000000 0.000000
6 -0.593262 30.0 1311 2390 71377 12025 3843426339 3701 0.000000 0.000000
7 -0.549316 30.0 1319 2816 71643 11437 3843426374 4135 0.000000 0.000000
8 -0.461426 30.0 1301 3311 71056 10383 3843426409 4612 0.000000 0.000000
9 -0.406494 30.0 1315 4213 71588 8848 3843426445 5528 0.000000 0.000000
10 -0.340576 30.0 1205 5042 71949 7545 3843426480 6247 0.000000 0.000000
11 -0.274658 30.0 1249 5684 71434 6113 3843426515 6933 0.000000 0.000000
12 -0.186768 30.0 1147 6426 71905 4931 3843426550 7573 0.000000 0.000000
13 -0.120850 30.0 1155 6522 71859 4885 3843426585 7677 0.000000 0.000000
14 -0.065918 30.0 1167 6357 71610 5077 3843426621 7524 0.000000 0.000000
15 0.000000 30.0 1213 5892 71599 6016 3843426656 7105 0.000000 0.000000
16 0.065918 30.0 1152 5098 71676 7101 3843426691 6250 0.000000 0.000000
17 0.142822 30.0 1258 4280 71130 8631 3843426726 5538 0.000000 0.000000
18 0.208740 30.0 1317 3442 71558 10071 3843426762 4759 0.000000 0.000000
19 0.263672 30.0 1364 2747 71510 11149 3843426797 4111 0.000000 0.000000
20 0.329590 30.0 1370 2441 71469 12157 3843426832 3811 0.000000 0.000000
21 0.395508 30.0 1335 2278 71714 12284 3843426867 3613 0.000000 0.000000
22 0.450439 30.0 1373 2483 71373 11928 3843426903 3856 0.000000 0.000000
23 0.527344 30.0 1220 2974 71381 11126 3843426938 4194 0.000000 0.000000
24 0.604248 30.0 1248 3600 71283 9663 3843426973 4848 0.000000 0.000000
25 0.670166 30.0 1244 4642 71156 8091 3843427008 5886 0.000000 0.000000
26 0.736084 30.0 1113 5380 71127 6565 3843427043 6493 0.000000 0.000000
27 0.791016 30.0 1138 6286 71663 5387 3843427079 7424 0.000000 0.000000
28 0.867920 30.0 1119 6470 71623 4789 3843427114 7589 0.000000 0.000000
29 0.933838 30.0 1107 6297 71214 4759 3843427149 7404 0.000000 0.000000
30 0.999756 30.0 1184 6018 71299 5405 3843427184 7202 0.000000 0.000000
31 1.065674 30.0 1130 5504 71401 6491 3843427220 6634 0.000000 0.000000
32 1.142578 30.0 1274 4562 71281 8098 3843427255 5836 0.000000 0.000000
