# ps_pos exposure_time(s) O-Beam H-Beam Monitor AUX-Beam time(s) O+H+AUX encod1 encod2
1 -0.659180 30.0 4616 3134 74348 5362 3844183050 7750 0.000000 0.000000
2 -0.593262 30.0 5009 2707 74698 5672 3844183085 7716 0.000000 0.000000
3 -0.527344 30.0 4658 2558 74745 6430 3844183120 7216 0.000000 0.000000
4 -0.461426 30.0 4590 2235 74775 7385 3844183155 6825 0.000000 0.000000
5 -0.406494 30.0 4007 2269 74736 8343 3844183191 6276 0.000000 0.000000
6 -0.340576 30.0 3626 1895 74666 9455 3844183226 5521 0.000000 0.000000
7 -0.274658 30.0 2782 1932 74791 10438 3844183261 4714 0.000000 0.000000
8 -0.219727 30.0 2247 2124 74718 11439 3844183296 4371 0.000000 0.000000
9 -0.153809 30.0 1717 2365 74556 11642 3844183331 4082 0.000000 0.000000
10 -0.076904 30.0 1539 2517 74440 11432 3844183367 4056 0.000000 0.000000
11 -0.010986 30.0 1612 3031 74480 10841 3844183402 4643 0.000000 0.000000
12 0.043945 30.0 2005 3223 74645 9657 3844183437 5228 0.000000 0.000000
13 0.120850 30.0 2496 3341 74979 8433 3844183472 5837 0.000000 0.000000
14 0.175781 30.0 3118 3507 74883 7472 3844183507 6625 0.000000 0.000000
15 0.241699 30.0 3531 3548 75305 6482 3844183543 7079 0.000000 0.000000
16 0.318603 30.0 4449 3186 74378 5528 3844183578 7635 0.000000 0.000000
17 0.395508 30.0 4597 3165 74825 5587 3844183613 7762 0.000000 0.000000
18 0.450439 30.0 4863 2759 74668 5707 3844183648 7622 0.000000 0.000000
19 0.516357 30.0 4898 2322 74472 6528 3844183683 7220 0.000000 0.000000
20 0.582275 30.0 4607 2053 74213 7445 3844183719 6660 0.000000 0.000000
21 0.637207 30.0 4077 1961 74335 8481 3844183754 6038 0.000000 0.000000
22 0.714111 30.0 3215 1880 74360 9936 3844183789 5095 0.000000 0.000000
23 0.780029 30.0 2482 1920 74545 11140 3844183824 4402 0.000000 0.000000
24 0.856934 30.0 1992 2163 74648 11475 3844183860 4155 0.000000 0.000000
25 0.911865 30.0 1602 2412 74433 11726 3844183895 4014 0.000000 0.000000
26 0.988769 30.0 1499 2780 73988 11105 3844183930 4279 0.000000 0.000000
27 1.054688 30.0 1837 2956 74672 10333 3844183965 4793 0.000000 0.000000
28 1.120605 30.0 2107 3262 74550 9138 3844184000 5369 0.000000 0.000000
29 1.186523 30.0 2803 3421 74974 7950 3844184036 6224 0.000000 0.000000
30 1.241455 30.0 3590 3426 74329 6726 3844184071 7016 0.000000 0.000000
31 1.307373 30.0 3885 3402 74906 5934 3844184106 7287 0.000000 0.000000
32 1.373291 30.0 4586 3087 74194 5551 3844184141 7673 0.000000 0.000000
33 1.439209 30.0 4867 2916 74780 5499 3844184176 7783 0.000000 0.000000
34 1.494141 30.0 4762 2678 74614 5776 3844184212 7440 0.000000 0.000000
35 1.549072 30.0 4768 2395 74286 6623 3844184247 7163 0.000000 0.000000
36 1.614990 30.0 4435 1995 74134 7809 3844184282 6430 0.000000 0.000000
37 1.691895 30.0 3810 1924 74341 8948 3844184317 5734 0.000000 0.000000
38 1.746826 30.0 3266 1953 73867 9939 3844184352 5219 0.000000 0.000000
39 1.812744 30.0 2737 1970 74263 10700 3844184388 4707 0.000000 0.000000
40 1.867676 30.0 2220 2109 74258 11511 3844184423 4329 0.000000 0.000000
41 1.933594 30.0 1842 2314 74176 11516 3844184458 4156 0.000000 0.000000
42 1.999512 30.0 1610 2655 73994 11274 3844184493 4265 0.000000 0.000000
43 2.054443 30.0 1662 2901 74694 10470 3844184528 4563 0.000000 0.000000
44 2.109375 30.0 2050 3183 74534 9460 3844184564 5233 0.000000 0.000000
45 2.175293 30.0 2568 3297 74663 8544 3844184599 5865 0.000000 0.000000
46 2.219238 30.0 2779 3455 74167 7699 3844184634 6234 0.000000 0.000000
47 2.285156 30.0 3621 3455 74668 6633 3844184669 7076 0.000000 0.000000
48 2.351074 30.0 4293 3233 74342 5958 3844184704 7526 0.000000 0.000000
