# ps_pos exposure_time(s) O-Beam H-Beam Monitor AUX-Beam time(s) O+H+AUX encod1 encod2
1 -1.175537 15.0 2262 1646 36517 2236 3843716429 3908 0.000000 0.000000
2 -1.109619 15.0 2383 1498 36252 2396 3843716449 3881 0.000000 0.000000
3 -1.043701 15.0 2477 1321 36369 2783 3843716470 3798 0.000000 0.000000
4 -0.966797 15.0 2285 1088 36169 3394 3843716490 3373 0.000000 0.000000
5 -0.911865 15.0 2047 938 36251 4040 3843716510 2985 0.000000 0.000000
6 -0.845947 15.0 1696 858 36074 4807 3843716530 2554 0.000000 0.000000
7 -0.780029 15.0 1208 837 35873 5558 3843716550 2045 0.000000 0.000000
8 -0.714111 15.0 942 932 36634 5828 3843716571 1874 0.000000 0.000000
9 -0.637207 15.0 653 1146 36129 5798 3843716591 1799 0.000000 0.000000
10 -0.593262 15.0 481 1290 36308 5674 3843716611 1771 0.000000 0.000000
11 -0.527344 15.0 518 1514 36416 5283 3843716631 2032 0.000000 0.000000
12 -0.461426 15.0 719 1739 36528 4747 3843716651 2458 0.000000 0.000000
13 -0.384522 15.0 1054 1878 36333 4015 3843716672 2932 0.000000 0.000000
14 -0.318603 15.0 1439 1867 36190 3275 3843716692 3306 0.000000 0.000000
15 -0.252686 15.0 1640 1964 36267 2671 3843716712 3604 0.000000 0.000000
16 -0.197754 15.0 2143 1837 36263 2317 3843716732 3980 0.000000 0.000000
17 -0.131836 15.0 2198 1672 36180 2194 3843716752 3870 0.000000 0.000000
18 -0.065918 15.0 2386 1480 36180 2408 3843716773 3866 0.000000 0.000000
19 -0.010986 15.0 2371 1215 36506 2705 3843716793 3586 0.000000 0.000000
20 0.065918 15.0 2278 1065 36563 3390 3843716813 3343 0.000000 0.000000
21 0.120850 15.0 2028 920 36335 4155 3843716833 2948 0.000000 0.000000
22 0.197754 15.0 1638 815 36256 4778 3843716853 2453 0.000000 0.000000
23 0.241699 15.0 1321 838 36187 5376 3843716874 2159 0.000000 0.000000
24 0.307617 15.0 945 939 36129 5723 3843716894 1884 0.000000 0.000000
25 0.373535 15.0 711 1132 36293 5836 3843716914 1843 0.000000 0.000000
26 0.428467 15.0 549 1239 36447 5932 3843716934 1788 0.000000 0.000000
27 0.505371 15.0 523 1511 36338 5393 3843716954 2034 0.000000 0.000000
28 0.560303 15.0 591 1623 36345 4913 3843716975 2214 0.000000 0.000000
29 0.626221 15.0 877 1802 36729 4207 3843716995 2679 0.000000 0.000000
30 0.703125 15.0 1243 1915 36077 3460 3843717015 3158 0.000000 0.000000
31 0.758057 15.0 1595 1938 36575 2816 3843717035 3533 0.000000 0.000000
32 0.812988 15.0 1888 1842 36161 2399 3843717055 3730 0.000000 0.000000
