# ps_pos exposure_time(s) O-Beam H-Beam Monitor AUX-Beam time(s) O+H+AUX encod1 encod2
1 0.461426 30.0 1315 4582 71942 8568 3843516024 5897 0.000000 0.000000
2 0.516357 30.0 1798 4210 72342 8388 3843516059 6008 0.000000 0.000000
3 0.571289 30.0 2538 3538 71845 8617 3843516094 6076 0.000000 0.000000
4 0.648193 30.0 3178 3028 72258 8623 3843516129 6206 0.000000 0.000000
5 0.725098 30.0 4034 2312 71836 8426 3843516164 6346 0.000000 0.000000
6 0.780029 30.0 4382 1961 72007 8653 3843516199 6343 0.000000 0.000000
7 0.856934 30.0 4350 1849 71572 8707 3843516235 6199 0.000000 0.000000
8 0.922852 30.0 4296 2042 71715 8665 3843516270 6338 0.000000 0.000000
9 0.988769 30.0 3861 2377 72165 8514 3843516305 6238 0.000000 0.000000
10 1.054688 30.0 3428 2780 72027 8637 3843516340 6208 0.000000 0.000000
11 1.098633 30.0 2644 3326 72302 8557 3843516375 5970 0.000000 0.000000
12 1.153565 30.0 2011 4086 71985 8720 3843516411 6097 0.000000 0.000000
13 1.230469 30.0 1434 4563 72068 8890 3843516446 5997 0.000000 0.000000
14 1.296387 30.0 917 4890 72035 8793 3843516481 5807 0.000000 0.000000
15 1.362305 30.0 835 5052 72288 8509 3843516516 5887 0.000000 0.000000
16 1.417236 30.0 1034 4893 72159 8779 3843516551 5927 0.000000 0.000000
17 1.483154 30.0 1185 4716 72343 8550 3843516586 5901 0.000000 0.000000
18 1.549072 30.0 1778 4105 72058 8795 3843516622 5883 0.000000 0.000000
19 1.614990 30.0 2497 3508 71664 8441 3843516657 6005 0.000000 0.000000
20 1.680908 30.0 3256 3015 72327 8628 3843516692 6271 0.000000 0.000000
21 1.746826 30.0 3940 2405 71906 8432 3843516727 6345 0.000000 0.000000
22 1.801758 30.0 4226 2115 71610 8538 3843516763 6341 0.000000 0.000000
23 1.878662 30.0 4550 1928 71836 8642 3843516798 6478 0.000000 0.000000
24 1.922607 30.0 4418 1970 71926 8786 3843516833 6388 0.000000 0.000000
25 1.966553 30.0 4211 2125 72197 8379 3843516868 6336 0.000000 0.000000
26 2.032471 30.0 3728 2520 72001 8533 3843516904 6248 0.000000 0.000000
27 2.098389 30.0 3021 3192 71520 8841 3843516939 6213 0.000000 0.000000
28 2.153320 30.0 2322 3827 71842 8603 3843516974 6149 0.000000 0.000000
29 2.241211 30.0 1545 4328 71668 8629 3843517009 5873 0.000000 0.000000
30 2.307129 30.0 1022 4808 71857 8703 3843517044 5830 0.000000 0.000000
31 2.373047 30.0 848 5058 72233 8611 3843517080 5906 0.000000 0.000000
32 2.427979 30.0 912 5131 71530 8680 3843517115 6043 0.000000 0.000000
