# ps_pos exposure_time(s) O-Beam H-Beam Monitor AUX-Beam time(s) O+H+AUX encod1 encod2
1 -0.307617 30.0 3896 2157 72041 8800 3843513759 6053 0.000000 0.000000
2 -0.263672 30.0 4255 2003 72134 8882 3843513794 6258 0.000000 0.000000
3 -0.164795 30.0 4408 1863 71602 8680 3843513829 6271 0.000000 0.000000
4 -0.109863 30.0 4262 1990 72172 8696 3843513864 6252 0.000000 0.000000
5 -0.043945 30.0 3676 2437 72473 8684 3843513899 6113 0.000000 0.000000
6 0.032959 30.0 3113 2934 72060 8664 3843513934 6047 0.000000 0.000000
7 0.087891 30.0 2413 3560 71735 8664 3843513970 5973 0.000000 0.000000
8 0.153809 30.0 1781 4006 72141 8662 3843514005 5787 0.000000 0.000000
9 0.208740 30.0 1167 4475 72037 8784 3843514040 5642 0.000000 0.000000
10 0.274658 30.0 789 4974 71810 8748 3843514075 5763 0.000000 0.000000
11 0.351562 30.0 760 4927 71711 8716 3843514110 5687 0.000000 0.000000
12 0.417480 30.0 979 4805 71683 8780 3843514145 5784 0.000000 0.000000
13 0.483398 30.0 1354 4406 72091 8796 3843514181 5760 0.000000 0.000000
14 0.549316 30.0 2011 3939 71488 8854 3843514216 5950 0.000000 0.000000
15 0.615234 30.0 2845 3259 71966 8743 3843514251 6104 0.000000 0.000000
16 0.681152 30.0 3641 2476 72100 8875 3843514286 6117 0.000000 0.000000
17 0.747070 30.0 4027 2071 72056 8774 3843514321 6098 0.000000 0.000000
18 0.812988 30.0 4367 1854 71696 8829 3843514357 6221 0.000000 0.000000
19 0.889893 30.0 4328 1827 72384 8784 3843514392 6155 0.000000 0.000000
20 0.955811 30.0 4095 2144 71810 8617 3843514427 6239 0.000000 0.000000
21 1.021729 30.0 3533 2568 71905 8670 3843514462 6101 0.000000 0.000000
22 1.076660 30.0 2790 3284 71762 8785 3843514498 6074 0.000000 0.000000
23 1.153565 30.0 2145 3840 71738 8621 3843514533 5985 0.000000 0.000000
24 1.219482 30.0 1411 4310 71823 8927 3843514568 5721 0.000000 0.000000
25 1.274414 30.0 1043 4795 72167 8807 3843514603 5838 0.000000 0.000000
26 1.329346 30.0 805 4885 71488 8696 3843514638 5690 0.000000 0.000000
27 1.395264 30.0 860 4780 71700 8657 3843514674 5640 0.000000 0.000000
28 1.472168 30.0 1132 4681 72043 8791 3843514709 5813 0.000000 0.000000
29 1.538086 30.0 1621 4138 72010 8641 3843514744 5759 0.000000 0.000000
30 1.604004 30.0 2390 3664 71888 8662 3843514779 6054 0.000000 0.000000
31 1.658935 30.0 2933 3119 72162 8713 3843514814 6052 0.000000 0.000000
32 1.724854 30.0 3704 2451 71984 8792 3843514850 6155 0.000000 0.000000
