# ps_pos exposure_time(s) O-Beam H-Beam Monitor AUX-Beam time(s) O+H+AUX encod1 encod2
1 -0.296631 30.0 4915 2112 71772 7377 3843405959 7027 0.000000 0.000000
2 -0.230713 30.0 5940 2250 71343 6059 3843405994 8190 0.000000 0.000000
3 -0.164795 30.0 6291 2209 71160 5287 3843406029 8500 0.000000 0.000000
4 -0.098877 30.0 6432 2221 71804 4899 3843406064 8653 0.000000 0.000000
5 -0.043945 30.0 6358 2224 71552 5127 3843406099 8582 0.000000 0.000000
6 0.010986 30.0 5673 2320 71133 5961 3843406135 7993 0.000000 0.000000
7 0.087891 30.0 4956 2381 71585 7086 3843406170 7337 0.000000 0.000000
8 0.142822 30.0 4105 2282 71409 8494 3843406205 6387 0.000000 0.000000
9 0.208740 30.0 3246 2355 71226 9752 3843406240 5601 0.000000 0.000000
10 0.285645 30.0 2305 2392 71416 11412 3843406275 4697 0.000000 0.000000
11 0.340576 30.0 1842 2282 71661 12333 3843406311 4124 0.000000 0.000000
12 0.428467 30.0 1611 2395 71473 12708 3843406346 4006 0.000000 0.000000
13 0.483398 30.0 1814 2218 71285 12608 3843406381 4032 0.000000 0.000000
14 0.549316 30.0 2293 2265 70921 11667 3843406416 4558 0.000000 0.000000
15 0.615234 30.0 3059 2204 71047 10465 3843406452 5263 0.000000 0.000000
16 0.670166 30.0 3927 2184 71370 9121 3843406487 6111 0.000000 0.000000
17 0.747070 30.0 5155 2176 71515 7181 3843406522 7331 0.000000 0.000000
18 0.812988 30.0 5788 2184 71531 6067 3843406557 7972 0.000000 0.000000
19 0.878906 30.0 6226 2242 71306 5310 3843406592 8468 0.000000 0.000000
20 0.933838 30.0 6469 2270 71273 5036 3843406628 8739 0.000000 0.000000
21 1.021729 30.0 6129 2275 71831 5475 3843406663 8404 0.000000 0.000000
22 1.076660 30.0 5465 2174 71258 6184 3843406698 7639 0.000000 0.000000
23 1.142578 30.0 4612 2361 71542 7688 3843406733 6973 0.000000 0.000000
24 1.186523 30.0 3863 2342 71119 9128 3843406769 6205 0.000000 0.000000
25 1.263428 30.0 2950 2426 71540 10289 3843406804 5376 0.000000 0.000000
26 1.329346 30.0 2098 2393 71717 11552 3843406839 4491 0.000000 0.000000
27 1.395264 30.0 1688 2440 71453 12550 3843406874 4128 0.000000 0.000000
28 1.450195 30.0 1544 2309 71342 12686 3843406909 3853 0.000000 0.000000
29 1.516113 30.0 1736 2298 71585 12533 3843406945 4034 0.000000 0.000000
30 1.582031 30.0 2270 2203 71722 11818 3843406980 4473 0.000000 0.000000
31 1.647949 30.0 3096 2180 71703 10372 3843407015 5276 0.000000 0.000000
32 1.713867 30.0 4118 2151 70675 8865 3843407050 6269 0.000000 0.000000
