# ps_pos exposure_time(s) O-Beam H-Beam Monitor AUX-Beam time(s) O+H+AUX encod1 encod2
1 -1.406250 30.0 3804 2274 71400 9051 3843404826 6078 0.000000 0.000000
2 -1.340332 30.0 4903 2234 71678 7661 3843404861 7137 0.000000 0.000000
3 -1.274414 30.0 5822 2185 71556 6162 3843404896 8007 0.000000 0.000000
4 -1.219482 30.0 6182 2182 71673 5334 3843404932 8364 0.000000 0.000000
5 -1.142578 30.0 6517 2221 71230 4932 3843404967 8738 0.000000 0.000000
6 -1.087646 30.0 6422 2322 71216 5140 3843405002 8744 0.000000 0.000000
7 -1.010742 30.0 5880 2295 71165 5903 3843405037 8175 0.000000 0.000000
8 -0.955811 30.0 5014 2325 71671 7164 3843405072 7339 0.000000 0.000000
9 -0.889893 30.0 4247 2309 71363 8351 3843405108 6556 0.000000 0.000000
10 -0.834961 30.0 3271 2399 71097 9978 3843405143 5670 0.000000 0.000000
11 -0.769043 30.0 2458 2312 71095 11281 3843405178 4770 0.000000 0.000000
12 -0.714111 30.0 1827 2253 71458 12222 3843405213 4080 0.000000 0.000000
13 -0.648193 30.0 1479 2269 71138 12761 3843405248 3748 0.000000 0.000000
14 -0.571289 30.0 1615 2288 71992 12647 3843405284 3903 0.000000 0.000000
15 -0.505371 30.0 2080 2287 71916 11733 3843405319 4367 0.000000 0.000000
16 -0.439453 30.0 3019 2166 71031 10682 3843405354 5185 0.000000 0.000000
17 -0.373535 30.0 3864 2250 71255 9023 3843405389 6114 0.000000 0.000000
18 -0.307617 30.0 5004 2202 71934 7460 3843405424 7206 0.000000 0.000000
19 -0.241699 30.0 5772 2272 71778 6336 3843405460 8044 0.000000 0.000000
20 -0.175781 30.0 6280 2168 71667 5207 3843405495 8448 0.000000 0.000000
21 -0.098877 30.0 6397 2160 71344 4936 3843405530 8557 0.000000 0.000000
22 -0.043945 30.0 6196 2249 71429 5298 3843405565 8445 0.000000 0.000000
23 0.032959 30.0 5698 2332 71553 6083 3843405600 8030 0.000000 0.000000
24 0.087891 30.0 4849 2332 71755 7163 3843405636 7181 0.000000 0.000000
25 0.142822 30.0 4126 2367 71306 8659 3843405671 6493 0.000000 0.000000
26 0.208740 30.0 3271 2278 71450 10187 3843405706 5549 0.000000 0.000000
27 0.285645 30.0 2327 2391 71593 11414 3843405741 4718 0.000000 0.000000
28 0.351562 30.0 1696 2348 71302 12500 3843405777 4044 0.000000 0.000000
29 0.406494 30.0 1473 2317 71420 12777 3843405812 3790 0.000000 0.000000
30 0.483398 30.0 1701 2279 71417 12605 3843405847 3980 0.000000 0.000000
31 0.549316 30.0 2280 2276 71224 11759 3843405882 4556 0.000000 0.000000
32 0.604248 30.0 3112 2240 71739 10638 3843405917 5352 0.000000 0.000000
