# ps_pos exposure_time(s) O-Beam H-Beam Monitor AUX-Beam time(s) O+H+AUX encod1 encod2
1 0.450439 30.0 1968 3010 92942 14503 3843058274 4978 0.000000 0.000000
2 0.494385 30.0 2487 2776 93262 14290 3843058310 5263 0.000000 0.000000
3 0.571289 30.0 2922 2800 93032 13357 3843058347 5722 0.000000 0.000000
4 0.626221 30.0 3226 3105 92860 12153 3843058383 6331 0.000000 0.000000
5 0.692139 30.0 3782 3732 92379 10415 3843058419 7514 0.000000 0.000000
6 0.769043 30.0 3871 4438 92830 8722 3843058455 8309 0.000000 0.000000
7 0.834961 30.0 4102 5117 92495 7204 3843058492 9219 0.000000 0.000000
8 0.900879 30.0 3661 6057 93156 6298 3843058528 9718 0.000000 0.000000
9 0.966797 30.0 3316 6499 92878 6139 3843058564 9815 0.000000 0.000000
10 1.021729 30.0 2750 6825 93238 6364 3843058600 9575 0.000000 0.000000
11 1.087646 30.0 2259 6689 93030 7303 3843058637 8948 0.000000 0.000000
12 1.153565 30.0 1784 6337 93087 8985 3843058673 8121 0.000000 0.000000
13 1.230469 30.0 1371 5730 92298 10492 3843058709 7101 0.000000 0.000000
14 1.296387 30.0 1209 4972 92523 11905 3843058746 6181 0.000000 0.000000
15 1.340332 30.0 1260 4513 92639 13208 3843058782 5773 0.000000 0.000000
16 1.406250 30.0 1537 3656 93145 14012 3843058818 5193 0.000000 0.000000
17 1.461182 30.0 1941 3084 92337 14175 3843058854 5025 0.000000 0.000000
18 1.538086 30.0 2348 2790 92415 14159 3843058891 5138 0.000000 0.000000
19 1.604004 30.0 2842 2830 92871 13251 3843058927 5672 0.000000 0.000000
20 1.669922 30.0 3319 3230 92479 12016 3843058963 6549 0.000000 0.000000
21 1.724854 30.0 3369 3743 92682 10524 3843058999 7112 0.000000 0.000000
22 1.790771 30.0 3647 4319 92607 9017 3843059036 7966 0.000000 0.000000
23 1.867676 30.0 3593 5357 92796 7371 3843059072 8950 0.000000 0.000000
24 1.922607 30.0 3570 5814 92706 6418 3843059108 9384 0.000000 0.000000
25 1.988525 30.0 3020 6633 92784 6093 3843059145 9653 0.000000 0.000000
26 2.054443 30.0 2648 6665 92535 6273 3843059181 9313 0.000000 0.000000
27 2.131348 30.0 2226 6527 92354 7308 3843059217 8753 0.000000 0.000000
28 2.197266 30.0 1751 6292 93020 8778 3843059253 8043 0.000000 0.000000
29 2.263184 30.0 1382 5792 93458 10544 3843059289 7174 0.000000 0.000000
30 2.318115 30.0 1291 5193 92793 11668 3843059326 6484 0.000000 0.000000
