# ps_pos exposure_time(s) O-Beam H-Beam Monitor AUX-Beam time(s) O+H+AUX encod1 encod2
1 -1.867676 30.0 1604 2361 73587 12609 3843970274 3965 0.000000 0.000000
2 -1.834717 30.0 1573 2369 73319 12225 3843970310 3942 0.000000 0.000000
3 -1.757812 30.0 2168 2349 73790 11651 3843970346 4517 0.000000 0.000000
4 -1.702881 30.0 2721 2278 73434 10532 3843970382 4999 0.000000 0.000000
5 -1.647949 30.0 3690 2110 73308 9446 3843970419 5800 0.000000 0.000000
6 -1.571045 30.0 4529 2264 73642 8026 3843970455 6793 0.000000 0.000000
7 -1.505127 30.0 5254 2343 73719 6531 3843970491 7597 0.000000 0.000000
8 -1.417236 30.0 5924 2288 73819 5536 3843970527 8212 0.000000 0.000000
9 -1.362305 30.0 6287 2244 73665 5077 3843970564 8531 0.000000 0.000000
10 -1.285400 30.0 6238 2237 73444 5364 3843970600 8475 0.000000 0.000000
11 -1.241455 30.0 5726 2264 73249 6108 3843970636 7990 0.000000 0.000000
12 -1.186523 30.0 4934 2343 73243 6904 3843970672 7277 0.000000 0.000000
13 -1.098633 30.0 3960 2388 73338 8531 3843970708 6348 0.000000 0.000000
14 -1.054688 30.0 3137 2358 73049 9714 3843970745 5495 0.000000 0.000000
15 -0.988769 30.0 2214 2555 73587 11079 3843970781 4769 0.000000 0.000000
16 -0.933838 30.0 1613 2428 73787 11892 3843970817 4041 0.000000 0.000000
17 -0.856934 30.0 1368 2353 73502 12581 3843970853 3721 0.000000 0.000000
18 -0.791016 30.0 1603 2266 73924 12491 3843970890 3869 0.000000 0.000000
19 -0.725098 30.0 2110 2197 73561 11684 3843970926 4307 0.000000 0.000000
20 -0.670166 30.0 2887 2137 73595 10503 3843970962 5024 0.000000 0.000000
21 -0.626221 30.0 3663 2147 73365 9483 3843970998 5810 0.000000 0.000000
22 -0.560303 30.0 4526 2206 73596 7934 3843971034 6732 0.000000 0.000000
23 -0.483398 30.0 5385 2330 73386 6568 3843971071 7715 0.000000 0.000000
24 -0.428467 30.0 5745 2169 73615 5579 3843971107 7914 0.000000 0.000000
25 -0.351562 30.0 6169 2336 73203 5015 3843971143 8505 0.000000 0.000000
26 -0.296631 30.0 6142 2224 73356 5146 3843971179 8366 0.000000 0.000000
27 -0.219727 30.0 5638 2304 73219 5855 3843971216 7942 0.000000 0.000000
28 -0.164795 30.0 5100 2267 73484 6694 3843971252 7367 0.000000 0.000000
29 -0.087891 30.0 4246 2165 73413 8354 3843971288 6411 0.000000 0.000000
30 -0.010986 30.0 3332 2157 73568 9750 3843971324 5489 0.000000 0.000000
31 0.043945 30.0 2535 2182 73754 10995 3843971360 4717 0.000000 0.000000
32 0.109863 30.0 1816 2193 73119 12036 3843971397 4009 0.000000 0.000000
33 0.186768 30.0 1472 2326 73543 12577 3843971433 3798 0.000000 0.000000
34 0.230713 30.0 1473 2445 73275 12394 3843971469 3918 0.000000 0.000000
35 0.296631 30.0 1850 2409 73168 11689 3843971505 4259 0.000000 0.000000
36 0.362549 30.0 2447 2275 73708 10893 3843971541 4722 0.000000 0.000000
37 0.439453 30.0 3389 2470 73523 8898 3843971578 5859 0.000000 0.000000
38 0.494385 30.0 4458 2359 73225 7957 3843971614 6817 0.000000 0.000000
39 0.549316 30.0 5171 2364 73518 6550 3843971650 7535 0.000000 0.000000
40 0.626221 30.0 5838 2250 73304 5528 3843971686 8088 0.000000 0.000000
41 0.681152 30.0 6199 2324 73766 5044 3843971722 8523 0.000000 0.000000
42 0.747070 30.0 6084 2269 72973 5122 3843971759 8353 0.000000 0.000000
43 0.812988 30.0 5770 2333 73538 5629 3843971795 8103 0.000000 0.000000
44 0.878906 30.0 4714 2522 72917 7029 3843971831 7236 0.000000 0.000000
45 0.933838 30.0 3913 2514 73465 8107 3843971867 6427 0.000000 0.000000
46 0.999756 30.0 3059 2414 73651 9643 3843971903 5473 0.000000 0.000000
47 1.054688 30.0 2311 2559 73613 10656 3843971940 4870 0.000000 0.000000
48 1.131592 30.0 1710 2577 73341 11978 3843971976 4287 0.000000 0.000000
