# ps_pos exposure_time(s) O-Beam H-Beam Monitor AUX-Beam time(s) O+H+AUX encod1 encod2
1 -1.241455 15.0 3046 1121 36540 2350 3843820819 4167 0.000000 0.000000
2 -1.175537 15.0 2806 1229 36614 2422 3843820839 4035 0.000000 0.000000
3 -1.098633 15.0 2581 1434 36555 2390 3843820859 4015 0.000000 0.000000
4 -1.032715 15.0 2217 1760 36221 2358 3843820880 3977 0.000000 0.000000
5 -0.977783 15.0 1772 2143 36618 2553 3843820900 3915 0.000000 0.000000
6 -0.911865 15.0 1369 2545 36581 2507 3843820920 3914 0.000000 0.000000
7 -0.856934 15.0 998 2857 36242 2427 3843820940 3855 0.000000 0.000000
8 -0.791016 15.0 684 3116 36298 2426 3843820960 3800 0.000000 0.000000
9 -0.736084 15.0 604 3124 37041 2354 3843820980 3728 0.000000 0.000000
10 -0.659180 15.0 758 2998 36276 2408 3843821001 3756 0.000000 0.000000
11 -0.593262 15.0 1089 2772 36434 2478 3843821021 3861 0.000000 0.000000
12 -0.538330 15.0 1371 2429 36641 2257 3843821041 3800 0.000000 0.000000
13 -0.483398 15.0 1868 2096 36322 2375 3843821061 3964 0.000000 0.000000
14 -0.406494 15.0 2366 1703 36102 2445 3843821082 4069 0.000000 0.000000
15 -0.351562 15.0 2648 1349 36553 2399 3843821102 3997 0.000000 0.000000
16 -0.296631 15.0 2985 1142 36556 2283 3843821122 4127 0.000000 0.000000
17 -0.230713 15.0 2960 1101 36390 2336 3843821142 4061 0.000000 0.000000
18 -0.175781 15.0 2939 1186 36593 2450 3843821162 4125 0.000000 0.000000
19 -0.098877 15.0 2753 1318 36274 2374 3843821183 4071 0.000000 0.000000
20 -0.032959 15.0 2365 1713 36389 2364 3843821203 4078 0.000000 0.000000
21 0.021973 15.0 1939 2014 36945 2373 3843821223 3953 0.000000 0.000000
22 0.076904 15.0 1535 2294 36953 2396 3843821243 3829 0.000000 0.000000
23 0.142822 15.0 1094 2691 36289 2348 3843821264 3785 0.000000 0.000000
24 0.208740 15.0 894 2919 36356 2406 3843821284 3813 0.000000 0.000000
25 0.263672 15.0 640 3119 36329 2385 3843821304 3759 0.000000 0.000000
26 0.329590 15.0 613 3193 36443 2318 3843821324 3806 0.000000 0.000000
27 0.384522 15.0 743 3030 36331 2296 3843821344 3773 0.000000 0.000000
28 0.461426 15.0 1029 2696 36473 2438 3843821364 3725 0.000000 0.000000
29 0.516357 15.0 1452 2393 36433 2343 3843821385 3845 0.000000 0.000000
30 0.582275 15.0 1859 2015 36459 2557 3843821405 3874 0.000000 0.000000
31 0.648193 15.0 2278 1762 36363 2319 3843821425 4040 0.000000 0.000000
32 0.714111 15.0 2606 1438 36647 2494 3843821445 4044 0.000000 0.000000
33 0.780029 15.0 2977 1096 36236 2343 3843821466 4073 0.000000 0.000000
34 0.845947 15.0 2926 1120 36421 2392 3843821486 4046 0.000000 0.000000
35 0.900879 15.0 2869 1210 36540 2477 3843821506 4079 0.000000 0.000000
36 0.966797 15.0 2524 1437 36444 2355 3843821526 3961 0.000000 0.000000
37 1.021729 15.0 2073 1910 36425 2302 3843821547 3983 0.000000 0.000000
38 1.098633 15.0 1613 2255 36464 2477 3843821567 3868 0.000000 0.000000
39 1.153565 15.0 1231 2598 36403 2313 3843821587 3829 0.000000 0.000000
40 1.219482 15.0 960 2937 36509 2431 3843821607 3897 0.000000 0.000000
41 1.296387 15.0 682 3167 36562 2333 3843821627 3849 0.000000 0.000000
42 1.351318 15.0 664 3154 36484 2462 3843821647 3818 0.000000 0.000000
43 1.428223 15.0 739 3031 36444 2343 3843821668 3770 0.000000 0.000000
44 1.494141 15.0 1096 2792 36406 2363 3843821688 3888 0.000000 0.000000
45 1.560059 15.0 1498 2365 36496 2336 3843821708 3863 0.000000 0.000000
46 1.625977 15.0 1944 2109 36304 2321 3843821728 4053 0.000000 0.000000
47 1.680908 15.0 2316 1696 36664 2445 3843821749 4012 0.000000 0.000000
48 1.746826 15.0 2639 1341 36726 2434 3843821769 3980 0.000000 0.000000
49 1.823730 15.0 2936 1100 36498 2431 3843821789 4036 0.000000 0.000000
50 1.878662 15.0 3040 1099 36441 2352 3843821809 4139 0.000000 0.000000
51 1.955566 15.0 2777 1218 36523 2422 3843821830 3995 0.000000 0.000000
52 2.010498 15.0 2632 1419 36759 2457 3843821850 4051 0.000000 0.000000
53 2.054443 15.0 2042 1811 36213 2317 3843821870 3853 0.000000 0.000000
54 2.131348 15.0 1599 2248 36618 2325 3843821890 3847 0.000000 0.000000
55 2.197266 15.0 1141 2723 36942 2411 3843821910 3864 0.000000 0.000000
56 2.263184 15.0 908 3008 36422 2458 3843821930 3916 0.000000 0.000000
57 2.329102 15.0 660 3069 36634 2329 3843821951 3729 0.000000 0.000000
58 2.395020 15.0 633 3171 36481 2367 3843821971 3804 0.000000 0.000000
59 2.449951 15.0 826 3051 36735 2319 3843821991 3877 0.000000 0.000000
60 2.515869 15.0 1041 2818 36413 2400 3843822011 3859 0.000000 0.000000
61 2.581787 15.0 1423 2453 36589 2348 3843822045 3876 0.000000 0.000000
62 2.636719 15.0 2039 1977 35853 2339 3843822065 4016 0.000000 0.000000
63 2.713623 15.0 2317 1710 36544 2345 3843822091 4027 0.000000 0.000000
64 2.779541 15.0 2749 1280 36489 2370 3843822111 4029 0.000000 0.000000
