# ps_pos exposure_time(s) O-Beam H-Beam Monitor AUX-Beam time(s) O+H+AUX encod1 encod2
1 -0.878906 30.0 1226 4508 73307 8111 3844204159 5734 0.000000 0.000000
2 -0.823975 30.0 1231 5108 74000 6908 3844204194 6339 0.000000 0.000000
3 -0.747070 30.0 1201 5836 74562 5881 3844204229 7037 0.000000 0.000000
4 -0.692139 30.0 1197 6027 74118 5315 3844204264 7224 0.000000 0.000000
5 -0.637207 30.0 1291 6033 75065 5233 3844204299 7324 0.000000 0.000000
6 -0.560303 30.0 1255 5680 74729 5724 3844204335 6935 0.000000 0.000000
7 -0.505371 30.0 1359 5293 74187 6275 3844204370 6652 0.000000 0.000000
8 -0.450439 30.0 1413 4595 74220 7415 3844204405 6008 0.000000 0.000000
9 -0.384522 30.0 1435 4070 74349 8571 3844204440 5505 0.000000 0.000000
10 -0.318603 30.0 1395 3541 74280 9817 3844204476 4936 0.000000 0.000000
11 -0.252686 30.0 1339 2960 74044 10690 3844204511 4299 0.000000 0.000000
12 -0.186768 30.0 1442 2632 73956 11280 3844204546 4074 0.000000 0.000000
13 -0.109863 30.0 1314 2560 74149 11517 3844204581 3874 0.000000 0.000000
14 -0.054932 30.0 1385 2568 74625 11153 3844204616 3953 0.000000 0.000000
15 0.000000 30.0 1306 3164 74582 10310 3844204652 4470 0.000000 0.000000
16 0.065918 30.0 1233 3748 74798 9398 3844204687 4981 0.000000 0.000000
17 0.142822 30.0 1232 4364 73746 8043 3844204722 5596 0.000000 0.000000
18 0.186768 30.0 1264 4778 74708 7252 3844204757 6042 0.000000 0.000000
19 0.263672 30.0 1250 5624 74582 6074 3844204792 6874 0.000000 0.000000
20 0.318603 30.0 1202 5803 74530 5358 3844204828 7005 0.000000 0.000000
21 0.384522 30.0 1223 6025 74098 5227 3844204863 7248 0.000000 0.000000
22 0.450439 30.0 1196 6026 74469 5449 3844204898 7222 0.000000 0.000000
23 0.516357 30.0 1316 5464 74382 6074 3844204933 6780 0.000000 0.000000
24 0.571289 30.0 1321 5098 74655 6967 3844204968 6419 0.000000 0.000000
25 0.637207 30.0 1430 4262 74850 8177 3844205003 5692 0.000000 0.000000
26 0.692139 30.0 1414 3514 74359 9418 3844205039 4928 0.000000 0.000000
27 0.769043 30.0 1333 3182 74670 10473 3844205074 4515 0.000000 0.000000
28 0.823975 30.0 1281 2623 74414 11140 3844205109 3904 0.000000 0.000000
29 0.878906 30.0 1421 2584 74351 11600 3844205144 4005 0.000000 0.000000
30 0.955811 30.0 1336 2699 74902 11373 3844205179 4035 0.000000 0.000000
31 1.010742 30.0 1328 3142 74532 10785 3844205215 4470 0.000000 0.000000
32 1.087646 30.0 1312 3698 74326 9524 3844205250 5010 0.000000 0.000000
33 1.153565 30.0 1277 4335 74012 8251 3844205285 5612 0.000000 0.000000
34 1.230469 30.0 1240 5095 74171 7141 3844205320 6335 0.000000 0.000000
35 1.296387 30.0 1167 5598 74735 6100 3844205356 6765 0.000000 0.000000
36 1.351318 30.0 1179 5987 74451 5337 3844205391 7166 0.000000 0.000000
37 1.406250 30.0 1209 6046 74225 5169 3844205426 7255 0.000000 0.000000
38 1.461182 30.0 1293 5902 74165 5481 3844205461 7195 0.000000 0.000000
39 1.538086 30.0 1317 5627 74021 6083 3844205496 6944 0.000000 0.000000
40 1.593018 30.0 1415 5012 74381 7026 3844205531 6427 0.000000 0.000000
41 1.669922 30.0 1307 4409 74383 8165 3844205567 5716 0.000000 0.000000
42 1.735840 30.0 1431 3559 74587 9379 3844205602 4990 0.000000 0.000000
43 1.790771 30.0 1384 3159 74192 10223 3844205637 4543 0.000000 0.000000
44 1.867676 30.0 1418 2709 74889 10956 3844205672 4127 0.000000 0.000000
45 1.933594 30.0 1377 2504 74750 11095 3844205708 3881 0.000000 0.000000
46 1.988525 30.0 1302 2682 74592 11163 3844205743 3984 0.000000 0.000000
47 2.065430 30.0 1250 3139 74242 10537 3844205778 4389 0.000000 0.000000
48 2.142334 30.0 1171 3695 74857 9389 3844205813 4866 0.000000 0.000000
