# ps_pos exposure_time(s) O-Beam H-Beam Monitor AUX-Beam time(s) O+H+AUX encod1 encod2
1 0.900879 15.0 2658 1455 35476 2637 3843364867 4113 0.000000 0.000000
2 0.823975 15.0 2693 1386 35643 2670 3843364888 4079 0.000000 0.000000
3 0.769043 15.0 2963 1179 35870 2708 3843364909 4142 0.000000 0.000000
4 0.703125 15.0 2739 976 35804 3360 3843364931 3715 0.000000 0.000000
5 0.626221 15.0 2399 894 35803 4108 3843364952 3293 0.000000 0.000000
6 0.560303 15.0 1842 983 35711 4998 3843364973 2825 0.000000 0.000000
7 0.494385 15.0 1524 895 35644 5695 3843364994 2419 0.000000 0.000000
8 0.439453 15.0 1115 1070 36073 5981 3843365016 2185 0.000000 0.000000
9 0.362549 15.0 893 1274 35329 6234 3843365037 2167 0.000000 0.000000
10 0.296631 15.0 676 1361 35654 6241 3843365058 2037 0.000000 0.000000
11 0.241699 15.0 773 1407 35786 5982 3843365079 2180 0.000000 0.000000
12 0.175781 15.0 920 1557 35686 5384 3843365100 2477 0.000000 0.000000
13 0.109863 15.0 1256 1628 35748 4620 3843365122 2884 0.000000 0.000000
14 0.043945 15.0 1596 1650 35510 4005 3843365143 3246 0.000000 0.000000
15 -0.021973 15.0 2164 1546 35820 3372 3843365164 3710 0.000000 0.000000
16 -0.087891 15.0 2326 1550 35534 3032 3843365185 3876 0.000000 0.000000
17 -0.153809 15.0 2811 1445 35504 2464 3843365206 4256 0.000000 0.000000
18 -0.219727 15.0 3073 1236 35806 2664 3843365228 4309 0.000000 0.000000
19 -0.274658 15.0 2967 1137 35731 2804 3843365249 4104 0.000000 0.000000
20 -0.340576 15.0 2770 1011 35588 3308 3843365270 3781 0.000000 0.000000
21 -0.406494 15.0 2502 929 35843 3978 3843365291 3431 0.000000 0.000000
22 -0.450439 15.0 2069 1017 35720 4758 3843365312 3086 0.000000 0.000000
23 -0.527344 15.0 1526 949 35738 5246 3843365334 2475 0.000000 0.000000
24 -0.593262 15.0 1141 997 35747 5925 3843365355 2138 0.000000 0.000000
25 -0.659180 15.0 840 1064 35358 6502 3843365376 1904 0.000000 0.000000
26 -0.714111 15.0 751 1129 35887 6291 3843365397 1880 0.000000 0.000000
27 -0.780029 15.0 761 1320 35627 6045 3843365418 2081 0.000000 0.000000
28 -0.845947 15.0 952 1390 35822 5573 3843365440 2342 0.000000 0.000000
29 -0.911865 15.0 1443 1361 35796 4927 3843365461 2804 0.000000 0.000000
30 -0.977783 15.0 2011 1277 35700 4194 3843365482 3288 0.000000 0.000000
