# ps_pos exposure_time(s) O-Beam H-Beam Monitor AUX-Beam time(s) O+H+AUX encod1 encod2
1 -1.208496 30.0 4948 5886 91688 6450 3843082168 10834 0.000000 0.000000
2 -1.153565 30.0 3654 6976 93116 6493 3843082203 10630 0.000000 0.000000
3 -1.087646 30.0 2484 7941 92132 6421 3843082239 10425 0.000000 0.000000
4 -1.010742 30.0 1811 8587 92680 6502 3843082274 10398 0.000000 0.000000
5 -0.955811 30.0 1548 8925 92653 6406 3843082309 10473 0.000000 0.000000
6 -0.889893 30.0 1753 8874 92431 6506 3843082344 10627 0.000000 0.000000
7 -0.823975 30.0 2495 8141 92369 6518 3843082380 10636 0.000000 0.000000
8 -0.758057 30.0 3665 7030 92729 6434 3843082415 10695 0.000000 0.000000
9 -0.692139 30.0 5181 5737 92417 6485 3843082450 10918 0.000000 0.000000
10 -0.604248 30.0 6689 4591 92376 6652 3843082485 11280 0.000000 0.000000
11 -0.549316 30.0 7634 3382 92760 6439 3843082521 11016 0.000000 0.000000
12 -0.494385 30.0 8197 2939 92800 6669 3843082556 11136 0.000000 0.000000
13 -0.406494 30.0 8189 2976 92389 6556 3843082591 11165 0.000000 0.000000
14 -0.329590 30.0 7656 3476 92988 6462 3843082627 11132 0.000000 0.000000
15 -0.274658 30.0 6959 4178 92929 6531 3843082662 11137 0.000000 0.000000
16 -0.208740 30.0 5647 5148 92403 6547 3843082697 10795 0.000000 0.000000
17 -0.164795 30.0 4359 6509 93051 6497 3843082732 10868 0.000000 0.000000
18 -0.076904 30.0 2917 7775 92704 6466 3843082768 10692 0.000000 0.000000
19 -0.010986 30.0 2212 8452 92431 6538 3843082803 10664 0.000000 0.000000
20 0.032959 30.0 1653 8883 92638 6330 3843082838 10536 0.000000 0.000000
21 0.098877 30.0 1566 8924 93379 6461 3843082873 10490 0.000000 0.000000
22 0.175781 30.0 1991 8653 92950 6415 3843082909 10644 0.000000 0.000000
23 0.241699 30.0 2834 7943 92800 6533 3843082944 10777 0.000000 0.000000
24 0.307617 30.0 4275 6526 93358 6412 3843082979 10801 0.000000 0.000000
25 0.373535 30.0 5539 5324 92501 6506 3843083014 10863 0.000000 0.000000
26 0.439453 30.0 6872 4276 93125 6388 3843083049 11148 0.000000 0.000000
27 0.516357 30.0 7897 3461 92250 6414 3843083085 11358 0.000000 0.000000
28 0.582275 30.0 8197 3037 92822 6522 3843083120 11234 0.000000 0.000000
29 0.648193 30.0 8261 3100 92844 6576 3843083155 11361 0.000000 0.000000
30 0.725098 30.0 7592 3627 92566 6406 3843083191 11219 0.000000 0.000000
