# ps_pos exposure_time(s) O-Beam H-Beam Monitor AUX-Beam time(s) O+H+AUX encod1 encod2
1 -0.955811 30.0 1507 8922 92577 6578 3843083232 10429 0.000000 0.000000
2 -0.889893 30.0 1734 8791 93014 6411 3843083267 10525 0.000000 0.000000
3 -0.834961 30.0 2335 8216 92860 6558 3843083302 10551 0.000000 0.000000
4 -0.769043 30.0 3165 7322 92925 6521 3843083338 10487 0.000000 0.000000
5 -0.692139 30.0 4988 5855 92386 6377 3843083373 10843 0.000000 0.000000
6 -0.626221 30.0 6328 4737 92594 6446 3843083408 11065 0.000000 0.000000
7 -0.571289 30.0 7507 3826 91925 6514 3843083443 11333 0.000000 0.000000
8 -0.494385 30.0 8196 3094 92610 6509 3843083479 11290 0.000000 0.000000
9 -0.439453 30.0 8557 2936 92608 6602 3843083514 11493 0.000000 0.000000
10 -0.362549 30.0 8076 3195 93036 6490 3843083549 11271 0.000000 0.000000
11 -0.296631 30.0 7206 3997 92917 6506 3843083584 11203 0.000000 0.000000
12 -0.252686 30.0 6230 4771 93363 6535 3843083620 11001 0.000000 0.000000
13 -0.186768 30.0 4752 6280 93246 6587 3843083655 11032 0.000000 0.000000
14 -0.098877 30.0 3442 7276 92586 6481 3843083690 10718 0.000000 0.000000
15 -0.032959 30.0 2275 8195 92823 6580 3843083725 10470 0.000000 0.000000
16 0.021973 30.0 1756 8888 92866 6434 3843083761 10644 0.000000 0.000000
17 0.098877 30.0 1506 8892 92641 6519 3843083796 10398 0.000000 0.000000
18 0.153809 30.0 1750 8923 92688 6586 3843083831 10673 0.000000 0.000000
19 0.208740 30.0 2303 8335 92591 6436 3843083866 10638 0.000000 0.000000
20 0.263672 30.0 3263 7366 92807 6405 3843083901 10629 0.000000 0.000000
21 0.329590 30.0 4451 6308 92970 6602 3843083937 10759 0.000000 0.000000
22 0.395508 30.0 5916 4892 92987 6433 3843083972 10808 0.000000 0.000000
23 0.461426 30.0 7147 4096 93106 6424 3843084007 11243 0.000000 0.000000
24 0.527344 30.0 7989 3275 92458 6450 3843084042 11264 0.000000 0.000000
25 0.582275 30.0 8210 3014 92395 6493 3843084078 11224 0.000000 0.000000
26 0.626221 30.0 8463 3038 93220 6428 3843084113 11501 0.000000 0.000000
27 0.681152 30.0 7727 3378 92465 6544 3843084148 11105 0.000000 0.000000
28 0.758057 30.0 6843 4511 93113 6587 3843084183 11354 0.000000 0.000000
29 0.845947 30.0 5460 5486 92490 6605 3843084218 10946 0.000000 0.000000
30 0.900879 30.0 4461 6468 92530 6493 3843084254 10929 0.000000 0.000000
