# ps_pos exposure_time(s) O-Beam H-Beam Monitor AUX-Beam time(s) O+H+AUX encod1 encod2
1 -1.384277 30.0 4266 2152 92502 9075 3842927782 6418 0.000000 0.000000
2 -1.296387 30.0 5658 2176 92560 6578 3842927817 7834 0.000000 0.000000
3 -1.197510 30.0 6607 2197 91846 5314 3842927852 8804 0.000000 0.000000
4 -1.087646 30.0 6556 2208 93036 5148 3842927888 8764 0.000000 0.000000
5 -0.999756 30.0 5722 2275 92332 6327 3842927923 7997 0.000000 0.000000
6 -0.889893 30.0 4549 2239 92683 8353 3842927958 6788 0.000000 0.000000
7 -0.791016 30.0 3188 2196 92372 10611 3842927993 5384 0.000000 0.000000
8 -0.714111 30.0 2279 2208 93000 12201 3842928028 4487 0.000000 0.000000
9 -0.604248 30.0 2067 2103 92174 12831 3842928064 4170 0.000000 0.000000
10 -0.505371 30.0 2497 2094 92855 12013 3842928099 4591 0.000000 0.000000
11 -0.406494 30.0 3501 2170 93036 10147 3842928134 5671 0.000000 0.000000
12 -0.318603 30.0 4640 2353 92927 8263 3842928169 6993 0.000000 0.000000
13 -0.219727 30.0 6182 2175 92515 6070 3842928204 8357 0.000000 0.000000
14 -0.131836 30.0 6600 2117 93061 5186 3842928240 8717 0.000000 0.000000
15 -0.032959 30.0 6397 2255 92811 5638 3842928275 8652 0.000000 0.000000
16 0.076904 30.0 5443 2173 93120 6934 3842928310 7616 0.000000 0.000000
17 0.175781 30.0 4103 2267 92739 9176 3842928345 6370 0.000000 0.000000
18 0.274658 30.0 2780 2204 92655 11540 3842928381 4984 0.000000 0.000000
19 0.373535 30.0 2004 2128 92818 12536 3842928416 4132 0.000000 0.000000
20 0.472412 30.0 1906 2091 92927 12683 3842928451 3997 0.000000 0.000000
21 0.571289 30.0 2741 2232 92264 11559 3842928486 4973 0.000000 0.000000
22 0.670166 30.0 4067 2173 92606 9255 3842928521 6240 0.000000 0.000000
