# ps_pos exposure_time(s) O-Beam H-Beam Monitor AUX-Beam time(s) O+H+AUX encod1 encod2
1 -2.153320 30.0 6746 2251 92861 5171 3842927003 8997 0.000000 0.000000
2 -2.054443 30.0 6275 2075 92605 5775 3842927038 8350 0.000000 0.000000
3 -1.955566 30.0 4900 2162 92192 8133 3842927073 7062 0.000000 0.000000
4 -1.856690 30.0 3578 2295 92341 10299 3842927108 5873 0.000000 0.000000
5 -1.746826 30.0 2237 2217 92613 12266 3842927143 4454 0.000000 0.000000
6 -1.647949 30.0 1846 2251 92762 12980 3842927178 4097 0.000000 0.000000
7 -1.549072 30.0 2518 2141 93279 12275 3842927214 4659 0.000000 0.000000
8 -1.450195 30.0 3532 2146 92011 10508 3842927249 5678 0.000000 0.000000
9 -1.340332 30.0 5074 2173 92731 7959 3842927284 7247 0.000000 0.000000
10 -1.241455 30.0 6134 2106 92151 6108 3842927319 8240 0.000000 0.000000
11 -1.153565 30.0 6582 2315 92721 5343 3842927354 8897 0.000000 0.000000
12 -1.054688 30.0 6251 2208 93071 5468 3842927390 8459 0.000000 0.000000
13 -0.955811 30.0 5498 2212 92448 7212 3842927425 7710 0.000000 0.000000
14 -0.845947 30.0 3977 2258 92605 9432 3842927460 6235 0.000000 0.000000
15 -0.747070 30.0 2771 2157 92344 11549 3842927495 4928 0.000000 0.000000
16 -0.670166 30.0 2002 2215 92402 12852 3842927530 4217 0.000000 0.000000
17 -0.560303 30.0 2129 2156 92507 12579 3842927566 4285 0.000000 0.000000
18 -0.461426 30.0 2937 2091 92881 11057 3842927601 5028 0.000000 0.000000
19 -0.362549 30.0 4248 2097 92720 9213 3842927636 6345 0.000000 0.000000
20 -0.263672 30.0 5759 2051 92515 7094 3842927671 7810 0.000000 0.000000
21 -0.164795 30.0 6647 2118 92463 5473 3842927706 8765 0.000000 0.000000
22 -0.065918 30.0 6558 2353 92052 5096 3842927742 8911 0.000000 0.000000
