# ps_pos exposure_time(s) O-Beam H-Beam Monitor AUX-Beam time(s) O+H+AUX encod1 encod2
1 -1.087646 30.0 3601 4642 71109 5070 3843493256 8243 0.000000 0.000000
2 -1.010742 30.0 2684 5644 72153 4966 3843493291 8328 0.000000 0.000000
3 -0.944824 30.0 1936 6238 71759 5143 3843493327 8174 0.000000 0.000000
4 -0.889893 30.0 1327 6781 71639 4977 3843493362 8108 0.000000 0.000000
5 -0.834961 30.0 1219 6705 71841 5114 3843493397 7924 0.000000 0.000000
6 -0.769043 30.0 1426 6520 72012 4864 3843493432 7946 0.000000 0.000000
7 -0.681152 30.0 2217 5820 71614 4998 3843493467 8037 0.000000 0.000000
8 -0.637207 30.0 3138 5013 71374 4953 3843493502 8151 0.000000 0.000000
9 -0.560303 30.0 4287 4027 71540 5103 3843493538 8314 0.000000 0.000000
10 -0.483398 30.0 5317 3170 71692 4903 3843493573 8487 0.000000 0.000000
11 -0.417480 30.0 6135 2658 71817 5049 3843493608 8793 0.000000 0.000000
12 -0.362549 30.0 6299 2322 71493 5114 3843493643 8621 0.000000 0.000000
13 -0.307617 30.0 6449 2241 71906 4986 3843493678 8690 0.000000 0.000000
14 -0.230713 30.0 5968 2509 71980 5118 3843493714 8477 0.000000 0.000000
15 -0.164795 30.0 5250 3115 71544 4976 3843493749 8365 0.000000 0.000000
16 -0.098877 30.0 4579 3835 71566 4979 3843493784 8414 0.000000 0.000000
17 -0.043945 30.0 3369 4777 71403 5016 3843493819 8146 0.000000 0.000000
18 0.032959 30.0 2503 5632 72285 4938 3843493854 8135 0.000000 0.000000
19 0.087891 30.0 1893 5919 71621 4995 3843493890 7812 0.000000 0.000000
20 0.164795 30.0 1256 6670 71534 4990 3843493925 7926 0.000000 0.000000
21 0.230713 30.0 1233 6771 72409 4867 3843493960 8004 0.000000 0.000000
22 0.285645 30.0 1453 6304 71476 4914 3843493995 7757 0.000000 0.000000
23 0.362549 30.0 2271 5801 71478 4944 3843494030 8072 0.000000 0.000000
24 0.428467 30.0 3173 5030 71998 5090 3843494066 8203 0.000000 0.000000
25 0.494385 30.0 4267 4085 71817 4968 3843494101 8352 0.000000 0.000000
26 0.549316 30.0 5042 3349 72193 4947 3843494136 8391 0.000000 0.000000
27 0.626221 30.0 6031 2646 71498 4920 3843494171 8677 0.000000 0.000000
28 0.692139 30.0 6426 2355 72041 4892 3843494206 8781 0.000000 0.000000
29 0.736084 30.0 6298 2315 71935 4851 3843494242 8613 0.000000 0.000000
30 0.802002 30.0 5896 2599 71479 4996 3843494277 8495 0.000000 0.000000
31 0.856934 30.0 5453 3139 71526 5019 3843494312 8592 0.000000 0.000000
32 0.933838 30.0 4346 3982 71175 5154 3843494347 8328 0.000000 0.000000
