# ps_pos exposure_time(s) O-Beam H-Beam Monitor AUX-Beam time(s) O+H+AUX encod1 encod2
1 -1.351318 30.0 1884 5962 92565 11684 3843096320 7846 0.000000 0.000000
2 -1.285400 30.0 2446 6488 92492 9529 3843096356 8934 0.000000 0.000000
3 -1.219482 30.0 3315 6763 92673 7806 3843096392 10078 0.000000 0.000000
4 -1.153565 30.0 4374 6351 92923 6832 3843096429 10725 0.000000 0.000000
5 -1.087646 30.0 5262 5653 92919 6357 3843096465 10915 0.000000 0.000000
6 -1.032715 30.0 5874 5021 93045 6738 3843096501 10895 0.000000 0.000000
7 -0.977783 30.0 6173 4249 92784 7629 3843096538 10422 0.000000 0.000000
8 -0.922852 30.0 6445 3424 93109 8873 3843096574 9869 0.000000 0.000000
9 -0.834961 30.0 5764 2832 92821 10762 3843096610 8596 0.000000 0.000000
10 -0.769043 30.0 4754 2487 92602 13175 3843096647 7241 0.000000 0.000000
11 -0.703125 30.0 3732 2363 92991 14971 3843096683 6095 0.000000 0.000000
12 -0.659180 30.0 2900 2576 92441 16155 3843096719 5476 0.000000 0.000000
13 -0.593262 30.0 2017 2998 92581 16806 3843096756 5015 0.000000 0.000000
14 -0.527344 30.0 1476 3495 93352 16307 3843096792 4971 0.000000 0.000000
15 -0.461426 30.0 1281 4360 93309 15146 3843096828 5641 0.000000 0.000000
16 -0.384522 30.0 1504 4966 92704 13546 3843096864 6470 0.000000 0.000000
17 -0.329590 30.0 2035 5553 93143 11461 3843096901 7588 0.000000 0.000000
18 -0.252686 30.0 2791 6069 92467 9734 3843096937 8860 0.000000 0.000000
19 -0.186768 30.0 3706 6234 93192 7863 3843096973 9940 0.000000 0.000000
20 -0.109863 30.0 4677 5813 93163 6954 3843097009 10490 0.000000 0.000000
21 -0.054932 30.0 5692 5313 93530 6548 3843097046 11005 0.000000 0.000000
22 0.000000 30.0 6190 4693 92980 6737 3843097082 10883 0.000000 0.000000
23 0.065918 30.0 6300 3731 93411 7707 3843097118 10031 0.000000 0.000000
24 0.142822 30.0 5989 3184 92354 9330 3843097155 9173 0.000000 0.000000
25 0.197754 30.0 5303 2811 92708 11373 3843097191 8114 0.000000 0.000000
26 0.263672 30.0 4814 2402 92810 12957 3843097228 7216 0.000000 0.000000
27 0.318603 30.0 3796 2383 93281 14766 3843097264 6179 0.000000 0.000000
28 0.384522 30.0 3021 2456 93212 15850 3843097300 5477 0.000000 0.000000
29 0.439453 30.0 2145 2878 92499 16278 3843097336 5023 0.000000 0.000000
30 0.505371 30.0 1549 3577 93119 16472 3843097373 5126 0.000000 0.000000
