# ps_pos exposure_time(s) O-Beam H-Beam Monitor AUX-Beam time(s) O+H+AUX encod1 encod2
1 4.306641 30.0 1050 6427 93120 11571 3843099605 7477 0.000000 0.000000
2 4.361572 30.0 1176 5437 92999 13443 3843099641 6613 0.000000 0.000000
3 4.438477 30.0 1374 4258 92832 14828 3843099677 5632 0.000000 0.000000
4 4.493408 30.0 1708 3527 93236 15557 3843099714 5235 0.000000 0.000000
5 4.559326 30.0 1912 3252 92682 16097 3843099750 5164 0.000000 0.000000
6 4.614258 30.0 2201 3168 92830 15981 3843099786 5369 0.000000 0.000000
7 4.691162 30.0 2454 3702 92519 14572 3843099823 6156 0.000000 0.000000
8 4.746094 30.0 2488 4439 92828 12932 3843099859 6927 0.000000 0.000000
9 4.812012 30.0 2289 5472 93164 11644 3843099895 7761 0.000000 0.000000
10 4.877930 30.0 2347 6527 93220 9466 3843099932 8874 0.000000 0.000000
11 4.943848 30.0 2259 7583 93001 7645 3843099968 9842 0.000000 0.000000
12 5.020752 30.0 2059 8021 93055 6907 3843100005 10080 0.000000 0.000000
13 5.064697 30.0 1872 8548 92560 6828 3843100041 10420 0.000000 0.000000
14 5.141602 30.0 1559 8151 92868 7403 3843100077 9710 0.000000 0.000000
15 5.207520 30.0 1189 7716 93233 8543 3843100113 8905 0.000000 0.000000
16 5.251465 30.0 1093 7082 92505 10244 3843100150 8175 0.000000 0.000000
17 5.328369 30.0 1105 6309 92622 11891 3843100186 7414 0.000000 0.000000
18 5.383301 30.0 1231 5086 92911 13561 3843100222 6317 0.000000 0.000000
19 5.449219 30.0 1533 4127 93167 14629 3843100259 5660 0.000000 0.000000
20 5.504150 30.0 1737 3420 92406 15813 3843100295 5157 0.000000 0.000000
21 5.581055 30.0 2087 3097 92873 16093 3843100331 5184 0.000000 0.000000
22 5.646973 30.0 2342 3251 92744 14954 3843100368 5593 0.000000 0.000000
23 5.701904 30.0 2708 3922 93100 13624 3843100404 6630 0.000000 0.000000
24 5.778809 30.0 2681 4583 93030 11673 3843100440 7264 0.000000 0.000000
25 5.822754 30.0 2879 5470 92730 10194 3843100477 8349 0.000000 0.000000
26 5.899658 30.0 2656 6537 92863 8562 3843100513 9193 0.000000 0.000000
27 5.965576 30.0 2456 7482 93195 7495 3843100549 9938 0.000000 0.000000
28 6.020508 30.0 2177 8113 93233 6875 3843100585 10290 0.000000 0.000000
29 6.086426 30.0 1718 8340 93135 6974 3843100622 10058 0.000000 0.000000
30 6.141357 30.0 1354 8186 93694 7689 3843100658 9540 0.000000 0.000000
