# ps_pos exposure_time(s) O-Beam H-Beam Monitor AUX-Beam time(s) O+H+AUX encod1 encod2
1 -1.208496 30.0 1413 5082 74125 6875 3844173261 6495 0.000000 0.000000
2 -1.142578 30.0 1583 4485 74156 7913 3844173298 6068 0.000000 0.000000
3 -1.087646 30.0 1653 3704 74391 9167 3844173334 5357 0.000000 0.000000
4 -1.010742 30.0 1604 3131 74887 10229 3844173370 4735 0.000000 0.000000
5 -0.944824 30.0 1595 2657 74600 11115 3844173406 4252 0.000000 0.000000
6 -0.900879 30.0 1740 2341 74441 11678 3844173442 4081 0.000000 0.000000
7 -0.834961 30.0 1719 2408 74684 11557 3844173479 4127 0.000000 0.000000
8 -0.769043 30.0 1648 2556 74351 10844 3844173515 4204 0.000000 0.000000
9 -0.703125 30.0 1618 3157 74760 10039 3844173551 4775 0.000000 0.000000
10 -0.626221 30.0 1442 4018 74961 8916 3844173587 5460 0.000000 0.000000
11 -0.560303 30.0 1581 4657 74554 7555 3844173624 6238 0.000000 0.000000
12 -0.505371 30.0 1396 5396 74625 6617 3844173660 6792 0.000000 0.000000
13 -0.439453 30.0 1203 5840 74503 5750 3844173696 7043 0.000000 0.000000
14 -0.384522 30.0 1246 5918 74164 5394 3844173732 7164 0.000000 0.000000
15 -0.318603 30.0 1272 5864 74885 5360 3844173768 7136 0.000000 0.000000
16 -0.241699 30.0 1286 5598 74732 6137 3844173805 6884 0.000000 0.000000
17 -0.175781 30.0 1274 5031 74920 6877 3844173841 6305 0.000000 0.000000
18 -0.109863 30.0 1284 4392 73952 8152 3844173877 5676 0.000000 0.000000
19 -0.032959 30.0 1391 3585 74723 9270 3844173913 4976 0.000000 0.000000
20 0.043945 30.0 1573 2992 74012 10513 3844173949 4565 0.000000 0.000000
21 0.098877 30.0 1739 2438 74523 11165 3844173986 4177 0.000000 0.000000
22 0.186768 30.0 1809 2229 74245 11608 3844174022 4038 0.000000 0.000000
23 0.241699 30.0 1956 2257 74387 11078 3844174058 4213 0.000000 0.000000
24 0.296631 30.0 1954 2618 74648 10686 3844174094 4572 0.000000 0.000000
25 0.362549 30.0 1922 3150 74725 9594 3844174130 5072 0.000000 0.000000
26 0.417480 30.0 1628 3884 75373 8543 3844174167 5512 0.000000 0.000000
27 0.494385 30.0 1677 4507 74810 7389 3844174203 6184 0.000000 0.000000
28 0.560303 30.0 1727 5303 75425 6246 3844174239 7030 0.000000 0.000000
29 0.626221 30.0 1404 5788 74231 5564 3844174275 7192 0.000000 0.000000
30 0.681152 30.0 1374 6030 74198 5395 3844174311 7404 0.000000 0.000000
31 0.725098 30.0 1235 6132 74516 5433 3844174348 7367 0.000000 0.000000
32 0.802002 30.0 1303 5604 74086 6087 3844174384 6907 0.000000 0.000000
33 0.867920 30.0 1215 5156 74244 6884 3844174420 6371 0.000000 0.000000
34 0.922852 30.0 1453 4411 74597 8058 3844174456 5864 0.000000 0.000000
35 0.988769 30.0 1404 3844 74034 9417 3844174492 5248 0.000000 0.000000
36 1.054688 30.0 1605 3061 74851 10342 3844174529 4666 0.000000 0.000000
37 1.120605 30.0 1775 2461 74536 10978 3844174565 4236 0.000000 0.000000
38 1.164551 30.0 1764 2302 74776 11732 3844174601 4066 0.000000 0.000000
39 1.241455 30.0 1711 2236 74087 11526 3844174637 3947 0.000000 0.000000
40 1.307373 30.0 1766 2561 74619 10785 3844174673 4327 0.000000 0.000000
41 1.384277 30.0 1951 3150 74247 9539 3844174710 5101 0.000000 0.000000
42 1.450195 30.0 1782 3937 73617 8372 3844174746 5719 0.000000 0.000000
43 1.516113 30.0 1377 4731 74776 7303 3844174782 6108 0.000000 0.000000
44 1.582031 30.0 1512 5491 74238 6300 3844174818 7003 0.000000 0.000000
45 1.647949 30.0 1279 5840 74402 5657 3844174854 7119 0.000000 0.000000
46 1.702881 30.0 1256 6027 74436 5202 3844174891 7283 0.000000 0.000000
47 1.768799 30.0 1323 5951 74194 5409 3844174927 7274 0.000000 0.000000
48 1.845703 30.0 1327 5495 73746 6124 3844174963 6822 0.000000 0.000000
