# ps_pos exposure_time(s) O-Beam H-Beam Monitor AUX-Beam time(s) O+H+AUX encod1 encod2
1 -1.087646 30.0 1581 8816 92548 6482 3843077914 10397 0.000000 0.000000
2 -1.032715 30.0 1561 8920 92286 7017 3843077949 10481 0.000000 0.000000
3 -0.977783 30.0 1605 8172 92629 8133 3843077984 9777 0.000000 0.000000
4 -0.922852 30.0 1615 7414 92877 9424 3843078019 9029 0.000000 0.000000
5 -0.856934 30.0 1781 5986 92425 11506 3843078055 7767 0.000000 0.000000
6 -0.780029 30.0 1838 4965 92814 13363 3843078090 6803 0.000000 0.000000
7 -0.714111 30.0 1954 3733 92690 15559 3843078125 5687 0.000000 0.000000
8 -0.637207 30.0 1924 3104 92582 16600 3843078160 5028 0.000000 0.000000
9 -0.571289 30.0 1984 3126 92563 16954 3843078196 5110 0.000000 0.000000
10 -0.516357 30.0 1996 3441 92564 16159 3843078231 5437 0.000000 0.000000
11 -0.450439 30.0 2010 4250 92291 14720 3843078266 6260 0.000000 0.000000
12 -0.373535 30.0 1862 5236 92998 12776 3843078301 7098 0.000000 0.000000
13 -0.318603 30.0 1812 6187 92368 11234 3843078336 7999 0.000000 0.000000
14 -0.263672 30.0 1688 7352 92252 9147 3843078372 9040 0.000000 0.000000
15 -0.186768 30.0 1653 8274 92979 7729 3843078407 9927 0.000000 0.000000
16 -0.131836 30.0 1642 8848 92506 6689 3843078442 10490 0.000000 0.000000
17 -0.065918 30.0 1513 8973 92748 6436 3843078478 10486 0.000000 0.000000
18 -0.010986 30.0 1524 8980 92867 7042 3843078513 10504 0.000000 0.000000
19 0.065918 30.0 1584 8096 92688 8100 3843078548 9680 0.000000 0.000000
20 0.120850 30.0 1624 7339 92664 9681 3843078583 8963 0.000000 0.000000
21 0.186768 30.0 1777 6236 92797 11579 3843078618 8013 0.000000 0.000000
22 0.252686 30.0 1770 5060 92408 13222 3843078654 6830 0.000000 0.000000
23 0.307617 30.0 1902 3909 92885 14859 3843078689 5811 0.000000 0.000000
24 0.373535 30.0 1878 3384 93273 16211 3843078724 5262 0.000000 0.000000
25 0.439453 30.0 1905 3022 92956 16657 3843078759 4927 0.000000 0.000000
26 0.494385 30.0 1982 3193 92935 16272 3843078795 5175 0.000000 0.000000
27 0.549316 30.0 1994 3691 92481 15606 3843078830 5685 0.000000 0.000000
28 0.626221 30.0 1860 4364 92528 14027 3843078865 6224 0.000000 0.000000
29 0.670166 30.0 1794 5365 92288 12370 3843078900 7159 0.000000 0.000000
30 0.736084 30.0 1674 6577 92817 10301 3843078936 8251 0.000000 0.000000
