# ps_pos exposure_time(s) O-Beam H-Beam Monitor AUX-Beam time(s) O+H+AUX encod1 encod2
1 -0.758057 15.0 738 1142 36274 6028 3843557691 1880 0.000000 0.000000
2 -0.670166 15.0 663 1344 35337 5806 3843557711 2007 0.000000 0.000000
3 -0.604248 15.0 837 1506 36328 5307 3843557731 2343 0.000000 0.000000
4 -0.538330 15.0 1121 1441 35900 4552 3843557751 2562 0.000000 0.000000
5 -0.472412 15.0 1492 1482 35413 3983 3843557771 2974 0.000000 0.000000
6 -0.417480 15.0 1973 1464 36189 3312 3843557791 3437 0.000000 0.000000
7 -0.340576 15.0 2480 1461 36345 2787 3843557812 3941 0.000000 0.000000
8 -0.263672 15.0 2683 1348 36080 2536 3843557832 4031 0.000000 0.000000
9 -0.208740 15.0 2855 1177 36268 2332 3843557852 4032 0.000000 0.000000
10 -0.142822 15.0 2895 1154 36305 2601 3843557872 4049 0.000000 0.000000
11 -0.076904 15.0 2733 1006 36075 2917 3843557892 3739 0.000000 0.000000
12 0.000000 15.0 2368 954 36125 3677 3843557913 3322 0.000000 0.000000
13 0.065918 15.0 1910 938 35998 4547 3843557933 2848 0.000000 0.000000
14 0.131836 15.0 1399 913 36141 5161 3843557953 2312 0.000000 0.000000
15 0.197754 15.0 1012 961 35555 5663 3843557973 1973 0.000000 0.000000
16 0.285645 15.0 739 1102 36036 6031 3843557994 1841 0.000000 0.000000
17 0.351562 15.0 659 1180 36201 6062 3843558014 1839 0.000000 0.000000
18 0.417480 15.0 696 1298 35975 5671 3843558034 1994 0.000000 0.000000
19 0.472412 15.0 1025 1379 35739 5049 3843558054 2404 0.000000 0.000000
20 0.538330 15.0 1362 1357 36119 4340 3843558074 2719 0.000000 0.000000
21 0.604248 15.0 1792 1410 36003 3708 3843558095 3202 0.000000 0.000000
22 0.670166 15.0 2252 1324 36086 3054 3843558115 3576 0.000000 0.000000
23 0.736084 15.0 2686 1306 36116 2673 3843558135 3992 0.000000 0.000000
24 0.802002 15.0 2810 1146 36054 2447 3843558155 3956 0.000000 0.000000
25 0.834961 15.0 2938 1080 35818 2280 3843558175 4018 0.000000 0.000000
26 0.922852 15.0 2885 1028 36200 2569 3843558196 3913 0.000000 0.000000
27 0.988769 15.0 2540 1042 36045 3040 3843558216 3582 0.000000 0.000000
28 1.043701 15.0 2317 960 36227 3674 3843558236 3277 0.000000 0.000000
29 1.109619 15.0 1863 921 35560 4366 3843558256 2784 0.000000 0.000000
30 1.197510 15.0 1440 1003 35936 4991 3843558277 2443 0.000000 0.000000
31 1.241455 15.0 1118 1008 35834 5484 3843558297 2126 0.000000 0.000000
32 1.318359 15.0 777 1076 36067 5920 3843558317 1853 0.000000 0.000000
