# ps_pos exposure_time(s) O-Beam H-Beam Monitor AUX-Beam time(s) O+H+AUX encod1 encod2
1 -1.230469 30.0 1352 2377 73623 12298 3843980846 3729 0.000000 0.000000
2 -1.186523 30.0 1290 2504 73140 11675 3843980881 3794 0.000000 0.000000
3 -1.120605 30.0 1236 3257 73465 10962 3843980916 4493 0.000000 0.000000
4 -1.043701 30.0 1152 3929 73336 9832 3843980952 5081 0.000000 0.000000
5 -0.988769 30.0 1038 4728 73550 8627 3843980987 5766 0.000000 0.000000
6 -0.922852 30.0 1118 5276 73574 7064 3843981022 6394 0.000000 0.000000
7 -0.856934 30.0 1113 5921 73516 6066 3843981057 7034 0.000000 0.000000
8 -0.802002 30.0 1130 6267 73381 5249 3843981093 7397 0.000000 0.000000
9 -0.736084 30.0 1328 6241 73811 4889 3843981128 7569 0.000000 0.000000
10 -0.670166 30.0 1347 6227 73441 5067 3843981163 7574 0.000000 0.000000
11 -0.615234 30.0 1426 5700 73272 5796 3843981198 7126 0.000000 0.000000
12 -0.538330 30.0 1492 5113 73107 6924 3843981233 6605 0.000000 0.000000
13 -0.472412 30.0 1570 4257 73755 8434 3843981269 5827 0.000000 0.000000
14 -0.417480 30.0 1499 3639 73606 9838 3843981304 5138 0.000000 0.000000
15 -0.351562 30.0 1514 2877 73586 11000 3843981339 4391 0.000000 0.000000
16 -0.263672 30.0 1459 2481 73745 11712 3843981374 3940 0.000000 0.000000
17 -0.208740 30.0 1391 2381 73896 12424 3843981409 3772 0.000000 0.000000
18 -0.142822 30.0 1251 2617 73532 11950 3843981445 3868 0.000000 0.000000
19 -0.087891 30.0 1191 2972 73087 11172 3843981480 4163 0.000000 0.000000
20 -0.021973 30.0 1114 3876 73376 9882 3843981515 4990 0.000000 0.000000
21 0.032959 30.0 1084 4465 73420 8768 3843981550 5549 0.000000 0.000000
22 0.120850 30.0 1059 5271 73463 7355 3843981585 6330 0.000000 0.000000
23 0.175781 30.0 1161 5930 73367 6270 3843981621 7091 0.000000 0.000000
24 0.230713 30.0 1208 6214 73936 5444 3843981656 7422 0.000000 0.000000
25 0.307617 30.0 1252 6350 73367 4979 3843981691 7602 0.000000 0.000000
26 0.362549 30.0 1310 6154 73340 4993 3843981726 7464 0.000000 0.000000
27 0.428467 30.0 1405 5751 73215 5739 3843981762 7156 0.000000 0.000000
28 0.505371 30.0 1513 5071 73455 7018 3843981797 6584 0.000000 0.000000
29 0.571289 30.0 1466 4179 73270 8287 3843981832 5645 0.000000 0.000000
30 0.648193 30.0 1571 3408 73362 10025 3843981867 4979 0.000000 0.000000
31 0.703125 30.0 1524 2712 73508 11270 3843981902 4236 0.000000 0.000000
32 0.769043 30.0 1380 2371 73067 12168 3843981937 3751 0.000000 0.000000
33 0.834961 30.0 1389 2409 73516 12217 3843981973 3798 0.000000 0.000000
34 0.911865 30.0 1237 2793 73290 11774 3843982008 4030 0.000000 0.000000
35 0.955811 30.0 1154 3157 73375 11064 3843982043 4311 0.000000 0.000000
36 1.021729 30.0 1164 3611 73630 9890 3843982078 4775 0.000000 0.000000
37 1.087646 30.0 1082 4596 73103 8585 3843982113 5678 0.000000 0.000000
38 1.142578 30.0 969 5378 73684 7227 3843982149 6347 0.000000 0.000000
39 1.208496 30.0 1114 6056 73406 6003 3843982184 7170 0.000000 0.000000
40 1.274414 30.0 1113 6458 73817 5074 3843982219 7571 0.000000 0.000000
41 1.340332 30.0 1205 6402 73219 4932 3843982254 7607 0.000000 0.000000
42 1.384277 30.0 1317 6284 73013 5079 3843982289 7601 0.000000 0.000000
43 1.461182 30.0 1451 5725 73104 5922 3843982324 7176 0.000000 0.000000
44 1.527100 30.0 1546 5022 74002 6970 3843982360 6568 0.000000 0.000000
45 1.604004 30.0 1520 4254 73069 8501 3843982395 5774 0.000000 0.000000
46 1.669922 30.0 1525 3433 73146 9900 3843982430 4958 0.000000 0.000000
47 1.724854 30.0 1530 2901 73772 11033 3843982465 4431 0.000000 0.000000
48 1.790771 30.0 1466 2442 73790 11633 3843982500 3908 0.000000 0.000000
