# ps_pos exposure_time(s) O-Beam H-Beam Monitor AUX-Beam time(s) O+H+AUX encod1 encod2
1 0.615234 30.0 4000 2285 70970 7765 3843326604 6285 0.000000 0.000000
2 0.670166 30.0 4997 2282 71492 6255 3843326639 7279 0.000000 0.000000
3 0.736084 30.0 5647 2236 71446 5022 3843326674 7883 0.000000 0.000000
4 0.812988 30.0 6203 2077 71158 4686 3843326709 8280 0.000000 0.000000
5 0.867920 30.0 5994 2154 71190 4901 3843326744 8148 0.000000 0.000000
6 0.944824 30.0 5676 2089 71122 5567 3843326780 7765 0.000000 0.000000
7 1.010742 30.0 5029 2108 71259 6702 3843326815 7137 0.000000 0.000000
8 1.065674 30.0 4078 2030 71441 8013 3843326850 6108 0.000000 0.000000
9 1.131592 30.0 3104 2049 71488 9581 3843326885 5153 0.000000 0.000000
10 1.197510 30.0 2352 2145 71366 10757 3843326921 4497 0.000000 0.000000
11 1.274414 30.0 1711 2058 71598 11700 3843326956 3769 0.000000 0.000000
12 1.351318 30.0 1324 2229 71123 12213 3843326991 3553 0.000000 0.000000
13 1.406250 30.0 1521 2359 71421 11747 3843327026 3880 0.000000 0.000000
14 1.472168 30.0 1929 2250 71542 11085 3843327061 4179 0.000000 0.000000
15 1.549072 30.0 2777 2281 71350 9858 3843327097 5058 0.000000 0.000000
16 1.604004 30.0 3713 2337 71296 8391 3843327132 6050 0.000000 0.000000
17 1.669922 30.0 4786 2229 71507 7034 3843327167 7015 0.000000 0.000000
18 1.746826 30.0 5293 2221 71173 5715 3843327202 7514 0.000000 0.000000
19 1.812744 30.0 5921 2205 71606 4972 3843327237 8126 0.000000 0.000000
20 1.878662 30.0 6016 2052 71692 4778 3843327273 8068 0.000000 0.000000
21 1.933594 30.0 5923 2117 70954 5051 3843327308 8040 0.000000 0.000000
22 1.999512 30.0 5407 2048 71604 5958 3843327343 7455 0.000000 0.000000
23 2.065430 30.0 4696 1993 71148 7389 3843327378 6689 0.000000 0.000000
24 2.142334 30.0 3549 2107 71766 8834 3843327413 5656 0.000000 0.000000
25 2.208252 30.0 2725 2118 71574 10373 3843327448 4843 0.000000 0.000000
26 2.274170 30.0 1937 2161 71363 11383 3843327484 4098 0.000000 0.000000
27 2.351074 30.0 1497 2268 70931 11925 3843327519 3765 0.000000 0.000000
28 2.416992 30.0 1469 2221 71575 11883 3843327554 3690 0.000000 0.000000
29 2.471924 30.0 1649 2187 71185 11439 3843327589 3836 0.000000 0.000000
30 2.526855 30.0 2314 2249 71453 10594 3843327624 4563 0.000000 0.000000
