# ps_pos exposure_time(s) O-Beam H-Beam Monitor AUX-Beam time(s) O+H+AUX encod1 encod2
1 -2.087402 30.0 1338 5822 72250 6048 3843510071 7160 0.000000 0.000000
2 -2.032471 30.0 1443 5071 71759 7564 3843510106 6514 0.000000 0.000000
3 -1.955566 30.0 1513 4232 71860 8946 3843510141 5745 0.000000 0.000000
4 -1.889648 30.0 1483 3307 72165 10489 3843510176 4790 0.000000 0.000000
5 -1.823730 30.0 1518 2766 71919 11688 3843510212 4284 0.000000 0.000000
6 -1.757812 30.0 1462 2337 71811 12391 3843510247 3799 0.000000 0.000000
7 -1.680908 30.0 1378 2411 71805 12707 3843510282 3789 0.000000 0.000000
8 -1.614990 30.0 1376 2607 71811 12113 3843510317 3983 0.000000 0.000000
9 -1.560059 30.0 1304 3252 71774 11125 3843510352 4556 0.000000 0.000000
10 -1.494141 30.0 1253 4110 71946 9826 3843510388 5363 0.000000 0.000000
11 -1.428223 30.0 1185 4842 72028 7899 3843510423 6027 0.000000 0.000000
12 -1.351318 30.0 1186 5977 72503 6420 3843510458 7163 0.000000 0.000000
13 -1.296387 30.0 1160 6348 71699 5388 3843510493 7508 0.000000 0.000000
14 -1.219482 30.0 1249 6557 71722 4981 3843510528 7806 0.000000 0.000000
15 -1.164551 30.0 1251 6430 72021 5052 3843510564 7681 0.000000 0.000000
16 -1.076660 30.0 1318 6045 71671 5632 3843510599 7363 0.000000 0.000000
17 -1.021729 30.0 1373 5448 71792 6660 3843510634 6821 0.000000 0.000000
18 -0.966797 30.0 1460 4686 71429 8222 3843510669 6146 0.000000 0.000000
19 -0.889893 30.0 1485 3815 71597 9667 3843510704 5300 0.000000 0.000000
20 -0.823975 30.0 1433 3018 71929 11138 3843510740 4451 0.000000 0.000000
21 -0.758057 30.0 1515 2544 71533 12118 3843510775 4059 0.000000 0.000000
22 -0.703125 30.0 1467 2321 71964 12401 3843510810 3788 0.000000 0.000000
23 -0.626221 30.0 1403 2410 72124 12405 3843510845 3813 0.000000 0.000000
24 -0.571289 30.0 1321 3025 71510 11542 3843510880 4346 0.000000 0.000000
25 -0.483398 30.0 1231 3830 72018 10257 3843510916 5061 0.000000 0.000000
26 -0.417480 30.0 1211 4581 72459 8613 3843510951 5792 0.000000 0.000000
27 -0.351562 30.0 1103 5442 71922 7244 3843510986 6545 0.000000 0.000000
28 -0.285645 30.0 1120 6199 71636 6183 3843511021 7319 0.000000 0.000000
29 -0.219727 30.0 1150 6669 71636 5185 3843511056 7819 0.000000 0.000000
30 -0.153809 30.0 1251 6807 71691 4913 3843511092 8058 0.000000 0.000000
31 -0.098877 30.0 1228 6430 71662 5162 3843511127 7658 0.000000 0.000000
32 -0.021973 30.0 1333 5664 71902 6445 3843511162 6997 0.000000 0.000000
