# ps_pos exposure_time(s) O-Beam H-Beam Monitor AUX-Beam time(s) O+H+AUX encod1 encod2
1 -1.867676 30.0 1458 3097 71910 10922 3843511203 4555 0.000000 0.000000
2 -1.801758 30.0 1496 2595 71732 11868 3843511238 4091 0.000000 0.000000
3 -1.746826 30.0 1412 2343 71934 12499 3843511273 3755 0.000000 0.000000
4 -1.680908 30.0 1404 2334 71910 12619 3843511309 3738 0.000000 0.000000
5 -1.604004 30.0 1364 2807 71848 11951 3843511344 4171 0.000000 0.000000
6 -1.538086 30.0 1255 3491 71572 10516 3843511379 4746 0.000000 0.000000
7 -1.472168 30.0 1241 4346 72245 9432 3843511414 5587 0.000000 0.000000
8 -1.417236 30.0 1191 5093 71827 7745 3843511449 6284 0.000000 0.000000
9 -1.340332 30.0 1136 5907 71725 6231 3843511485 7043 0.000000 0.000000
10 -1.296387 30.0 1201 6429 72071 5497 3843511520 7630 0.000000 0.000000
11 -1.230469 30.0 1143 6679 71878 4828 3843511555 7822 0.000000 0.000000
12 -1.164551 30.0 1292 6603 71482 4870 3843511590 7895 0.000000 0.000000
13 -1.098633 30.0 1307 6216 71609 5599 3843511625 7523 0.000000 0.000000
14 -1.032715 30.0 1420 5741 72296 6531 3843511661 7161 0.000000 0.000000
15 -0.966797 30.0 1460 4795 71329 8060 3843511696 6255 0.000000 0.000000
16 -0.922852 30.0 1396 4044 71849 9386 3843511731 5440 0.000000 0.000000
17 -0.845947 30.0 1521 3381 72222 10681 3843511766 4902 0.000000 0.000000
18 -0.780029 30.0 1551 2657 71788 11757 3843511801 4208 0.000000 0.000000
19 -0.725098 30.0 1569 2357 71433 12358 3843511837 3926 0.000000 0.000000
20 -0.659180 30.0 1407 2386 71802 12778 3843511872 3793 0.000000 0.000000
21 -0.604248 30.0 1373 2612 71812 12092 3843511907 3985 0.000000 0.000000
22 -0.527344 30.0 1245 3339 72110 11101 3843511942 4584 0.000000 0.000000
23 -0.472412 30.0 1266 4004 71787 9708 3843511978 5270 0.000000 0.000000
24 -0.384522 30.0 1293 4952 71894 8381 3843512013 6245 0.000000 0.000000
25 -0.318603 30.0 1205 5821 71608 6860 3843512048 7026 0.000000 0.000000
26 -0.263672 30.0 1161 6265 72296 5758 3843512083 7426 0.000000 0.000000
27 -0.208740 30.0 1196 6754 71927 5111 3843512118 7950 0.000000 0.000000
28 -0.120850 30.0 1237 6584 71965 4853 3843512154 7821 0.000000 0.000000
29 -0.065918 30.0 1307 6284 71776 5490 3843512189 7591 0.000000 0.000000
30 -0.010986 30.0 1341 5638 71959 6579 3843512224 6979 0.000000 0.000000
31 0.076904 30.0 1448 4769 71720 8017 3843512259 6217 0.000000 0.000000
32 0.120850 30.0 1447 4033 72229 9377 3843512294 5480 0.000000 0.000000
