# ps_pos exposure_time(s) O-Beam H-Beam Monitor AUX-Beam time(s) O+H+AUX encod1 encod2
1 -1.208496 30.0 1195 6448 72046 4789 3843507806 7643 0.000000 0.000000
2 -1.153565 30.0 1306 6484 72100 5141 3843507842 7790 0.000000 0.000000
3 -1.087646 30.0 1279 5923 71549 5867 3843507877 7202 0.000000 0.000000
4 -1.010742 30.0 1377 5360 72420 7075 3843507912 6737 0.000000 0.000000
5 -0.955811 30.0 1397 4363 71767 8665 3843507947 5760 0.000000 0.000000
6 -0.889893 30.0 1348 3526 71781 9957 3843507982 4874 0.000000 0.000000
7 -0.812988 30.0 1457 2896 72197 11175 3843508018 4353 0.000000 0.000000
8 -0.747070 30.0 1403 2446 71854 12204 3843508053 3849 0.000000 0.000000
9 -0.692139 30.0 1454 2230 72228 12564 3843508088 3684 0.000000 0.000000
10 -0.626221 30.0 1352 2582 71494 12231 3843508123 3934 0.000000 0.000000
11 -0.571289 30.0 1359 3094 71990 11309 3843508158 4453 0.000000 0.000000
12 -0.483398 30.0 1265 3777 71537 10090 3843508194 5042 0.000000 0.000000
13 -0.417480 30.0 1278 4880 71900 8411 3843508229 6158 0.000000 0.000000
14 -0.329590 30.0 1190 5766 72333 6529 3843508264 6956 0.000000 0.000000
15 -0.263672 30.0 1209 6399 72308 5649 3843508299 7608 0.000000 0.000000
16 -0.197754 30.0 1278 6551 72372 4931 3843508334 7829 0.000000 0.000000
17 -0.142822 30.0 1191 6616 71867 4917 3843508370 7807 0.000000 0.000000
18 -0.087891 30.0 1215 6402 71707 5362 3843508405 7617 0.000000 0.000000
19 -0.021973 30.0 1328 5755 72148 6518 3843508440 7083 0.000000 0.000000
20 0.054932 30.0 1379 4873 72174 7959 3843508475 6252 0.000000 0.000000
21 0.120850 30.0 1495 3920 71790 9462 3843508510 5415 0.000000 0.000000
22 0.208740 30.0 1526 3180 72178 11029 3843508546 4706 0.000000 0.000000
23 0.274658 30.0 1454 2575 72030 12051 3843508581 4029 0.000000 0.000000
24 0.329590 30.0 1509 2285 71810 12501 3843508616 3794 0.000000 0.000000
25 0.395508 30.0 1408 2455 71642 12302 3843508651 3863 0.000000 0.000000
26 0.461426 30.0 1359 2856 71878 11682 3843508686 4215 0.000000 0.000000
27 0.527344 30.0 1261 3335 72044 10700 3843508721 4596 0.000000 0.000000
28 0.593262 30.0 1210 4211 71470 9424 3843508757 5421 0.000000 0.000000
29 0.659180 30.0 1207 5166 71752 7680 3843508792 6373 0.000000 0.000000
30 0.725098 30.0 1182 5847 71896 6241 3843508827 7029 0.000000 0.000000
31 0.791016 30.0 1164 6524 72472 5234 3843508862 7688 0.000000 0.000000
32 0.834961 30.0 1171 6498 71938 5072 3843508897 7669 0.000000 0.000000
