# ps_pos exposure_time(s) O-Beam H-Beam Monitor AUX-Beam time(s) O+H+AUX encod1 encod2
1 -1.131592 30.0 5227 5687 92822 6577 3843131226 10914 0.000000 0.000000
2 -1.065674 30.0 5751 5067 93315 6825 3843131262 10818 0.000000 0.000000
3 -0.999756 30.0 5898 4098 92687 8007 3843131298 9996 0.000000 0.000000
4 -0.933838 30.0 5516 3432 92899 10010 3843131334 8948 0.000000 0.000000
5 -0.867920 30.0 5043 2797 93327 12146 3843131371 7840 0.000000 0.000000
6 -0.802002 30.0 4209 2345 93434 13915 3843131407 6554 0.000000 0.000000
7 -0.725098 30.0 3306 2341 92946 15615 3843131443 5647 0.000000 0.000000
8 -0.670166 30.0 2253 2671 93261 16447 3843131480 4924 0.000000 0.000000
9 -0.615234 30.0 1686 3201 93166 16868 3843131516 4887 0.000000 0.000000
10 -0.560303 30.0 1496 3693 92861 16273 3843131552 5189 0.000000 0.000000
11 -0.505371 30.0 1455 4201 92680 15045 3843131588 5656 0.000000 0.000000
12 -0.428467 30.0 1721 4766 93400 13375 3843131624 6487 0.000000 0.000000
13 -0.384522 30.0 2493 5138 93054 11817 3843131660 7631 0.000000 0.000000
14 -0.307617 30.0 3333 5507 93317 9680 3843131697 8840 0.000000 0.000000
15 -0.241699 30.0 4540 5281 93499 8144 3843131733 9821 0.000000 0.000000
16 -0.186768 30.0 5427 5088 93378 6889 3843131769 10515 0.000000 0.000000
17 -0.109863 30.0 6477 4548 93389 6525 3843131805 11025 0.000000 0.000000
18 -0.054932 30.0 6878 3988 93358 6686 3843131841 10866 0.000000 0.000000
19 0.000000 30.0 6857 3592 93127 7729 3843131878 10449 0.000000 0.000000
20 0.065918 30.0 6576 2879 93082 9265 3843131914 9455 0.000000 0.000000
21 0.131836 30.0 5778 2455 93615 11067 3843131950 8233 0.000000 0.000000
22 0.197754 30.0 4885 2327 92643 13186 3843131987 7212 0.000000 0.000000
23 0.263672 30.0 3793 2372 93110 14491 3843132023 6165 0.000000 0.000000
24 0.340576 30.0 2836 2609 93183 16164 3843132059 5445 0.000000 0.000000
25 0.406494 30.0 2026 2884 93014 16486 3843132095 4910 0.000000 0.000000
26 0.483398 30.0 1533 3606 92495 16225 3843132131 5139 0.000000 0.000000
27 0.560303 30.0 1437 4231 92897 14913 3843132168 5668 0.000000 0.000000
28 0.604248 30.0 1846 4666 92999 13765 3843132204 6512 0.000000 0.000000
29 0.670166 30.0 2509 5083 93281 11755 3843132240 7592 0.000000 0.000000
30 0.725098 30.0 3565 5450 93624 9692 3843132276 9015 0.000000 0.000000
