# ps_pos exposure_time(s) O-Beam H-Beam Monitor AUX-Beam time(s) O+H+AUX encod1 encod2
1 -2.076416 30.0 1345 6088 71604 5392 3843417198 7433 0.000000 0.000000
2 -2.021484 30.0 1387 5252 71146 6768 3843417233 6639 0.000000 0.000000
3 -1.955566 30.0 1561 4504 71295 8094 3843417268 6065 0.000000 0.000000
4 -1.878662 30.0 1507 3731 71152 9611 3843417304 5238 0.000000 0.000000
5 -1.812744 30.0 1523 2990 71372 10810 3843417339 4513 0.000000 0.000000
6 -1.757812 30.0 1457 2574 72246 11997 3843417374 4031 0.000000 0.000000
7 -1.691895 30.0 1437 2292 71100 12373 3843417409 3729 0.000000 0.000000
8 -1.614990 30.0 1344 2431 71595 12289 3843417444 3775 0.000000 0.000000
9 -1.549072 30.0 1137 2799 71792 11602 3843417480 3936 0.000000 0.000000
10 -1.494141 30.0 1194 3519 71122 10393 3843417515 4713 0.000000 0.000000
11 -1.428223 30.0 1119 4508 71179 8912 3843417550 5627 0.000000 0.000000
12 -1.362305 30.0 1105 5282 71676 7348 3843417585 6387 0.000000 0.000000
13 -1.296387 30.0 1072 6007 71665 6098 3843417620 7079 0.000000 0.000000
14 -1.230469 30.0 1115 6507 71237 5301 3843417655 7622 0.000000 0.000000
15 -1.175537 30.0 1233 6589 71105 4841 3843417691 7822 0.000000 0.000000
16 -1.109619 30.0 1265 6382 71424 4987 3843417726 7647 0.000000 0.000000
17 -1.043701 30.0 1359 5904 71596 5543 3843417761 7263 0.000000 0.000000
18 -0.977783 30.0 1389 5325 71671 6701 3843417796 6714 0.000000 0.000000
19 -0.911865 30.0 1460 4627 71596 8081 3843417831 6087 0.000000 0.000000
20 -0.856934 30.0 1531 3755 72127 9295 3843417867 5286 0.000000 0.000000
21 -0.791016 30.0 1633 3094 71840 10828 3843417902 4727 0.000000 0.000000
22 -0.714111 30.0 1466 2438 71097 12044 3843417937 3904 0.000000 0.000000
23 -0.648193 30.0 1322 2227 71725 12342 3843417972 3549 0.000000 0.000000
24 -0.593262 30.0 1333 2423 71308 12219 3843418007 3756 0.000000 0.000000
25 -0.549316 30.0 1182 2681 71266 11694 3843418043 3863 0.000000 0.000000
26 -0.472412 30.0 1195 3415 71344 10882 3843418078 4610 0.000000 0.000000
27 -0.395508 30.0 1080 4234 70953 9407 3843418113 5314 0.000000 0.000000
28 -0.340576 30.0 1076 5085 71292 7959 3843418148 6161 0.000000 0.000000
29 -0.285645 30.0 1069 5825 71690 6518 3843418183 6894 0.000000 0.000000
30 -0.219727 30.0 1068 6367 71776 5392 3843418219 7435 0.000000 0.000000
31 -0.153809 30.0 1147 6653 71640 4917 3843418254 7800 0.000000 0.000000
32 -0.087891 30.0 1293 6476 71689 4961 3843418289 7769 0.000000 0.000000
