# ps_pos exposure_time(s) O-Beam H-Beam Monitor AUX-Beam time(s) O+H+AUX encod1 encod2
1 -1.900635 30.0 5037 2308 73898 5940 3844012671 7345 0.000000 0.000000
2 -1.834717 30.0 5018 2694 73590 4994 3844012707 7712 0.000000 0.000000
3 -1.779785 30.0 4900 3125 73579 4754 3844012742 8025 0.000000 0.000000
4 -1.713867 30.0 4380 3600 73513 4791 3844012777 7980 0.000000 0.000000
5 -1.636963 30.0 3735 3625 73858 5454 3844012812 7360 0.000000 0.000000
6 -1.560059 30.0 2839 3657 73838 6660 3844012847 6496 0.000000 0.000000
7 -1.505127 30.0 2149 3680 74125 8167 3844012883 5829 0.000000 0.000000
8 -1.450195 30.0 1494 3504 73576 9377 3844012918 4998 0.000000 0.000000
9 -1.373291 30.0 1168 3134 73685 10786 3844012953 4302 0.000000 0.000000
10 -1.318359 30.0 1080 2641 73483 11741 3844012988 3721 0.000000 0.000000
11 -1.241455 30.0 1414 2229 73753 12063 3844013023 3643 0.000000 0.000000
12 -1.186523 30.0 1904 2008 73788 11677 3844013059 3912 0.000000 0.000000
13 -1.109619 30.0 2753 1777 73762 10888 3844013094 4530 0.000000 0.000000
14 -1.054688 30.0 3444 1737 74066 9769 3844013129 5181 0.000000 0.000000
15 -0.988769 30.0 4114 1857 73662 8221 3844013164 5971 0.000000 0.000000
16 -0.900879 30.0 4728 2119 73769 6802 3844013199 6847 0.000000 0.000000
17 -0.845947 30.0 5057 2465 73327 5708 3844013235 7522 0.000000 0.000000
18 -0.791016 30.0 5052 2856 73629 4973 3844013270 7908 0.000000 0.000000
19 -0.725098 30.0 4686 3083 73464 4734 3844013305 7769 0.000000 0.000000
20 -0.648193 30.0 4083 3646 73755 5145 3844013340 7729 0.000000 0.000000
21 -0.615234 30.0 3415 3777 73635 5900 3844013375 7192 0.000000 0.000000
22 -0.527344 30.0 2856 3724 74163 7070 3844013411 6580 0.000000 0.000000
23 -0.483398 30.0 2145 3736 73288 8251 3844013446 5881 0.000000 0.000000
24 -0.406494 30.0 1461 3360 73306 9708 3844013481 4821 0.000000 0.000000
25 -0.340576 30.0 1180 3097 73398 10682 3844013516 4277 0.000000 0.000000
26 -0.285645 30.0 1142 2619 73561 11446 3844013551 3761 0.000000 0.000000
27 -0.219727 30.0 1320 2293 73724 11783 3844013587 3613 0.000000 0.000000
28 -0.153809 30.0 1738 2062 72859 11595 3844013622 3800 0.000000 0.000000
29 -0.087891 30.0 2415 1749 73579 11106 3844013657 4164 0.000000 0.000000
30 -0.032959 30.0 3262 1773 73566 9772 3844013692 5035 0.000000 0.000000
31 0.043945 30.0 3977 1753 73276 8610 3844013727 5730 0.000000 0.000000
32 0.087891 30.0 4509 2078 73872 7412 3844013763 6587 0.000000 0.000000
33 0.164795 30.0 4915 2419 73997 5790 3844013798 7334 0.000000 0.000000
34 0.252686 30.0 4861 2856 73609 5037 3844013833 7717 0.000000 0.000000
35 0.296631 30.0 4792 3313 73811 4723 3844013868 8105 0.000000 0.000000
36 0.362549 30.0 4284 3560 73781 4883 3844013903 7844 0.000000 0.000000
37 0.439453 30.0 3526 3748 73295 5796 3844013939 7274 0.000000 0.000000
38 0.505371 30.0 2698 3751 73434 6743 3844013974 6449 0.000000 0.000000
39 0.560303 30.0 2082 3668 73379 8123 3844014009 5750 0.000000 0.000000
40 0.637207 30.0 1461 3432 74054 9485 3844014044 4893 0.000000 0.000000
41 0.681152 30.0 1175 3031 73571 10621 3844014079 4206 0.000000 0.000000
42 0.747070 30.0 1099 2799 73715 11243 3844014115 3898 0.000000 0.000000
43 0.802002 30.0 1269 2335 73601 11885 3844014150 3604 0.000000 0.000000
44 0.867920 30.0 1623 2039 73583 11811 3844014185 3662 0.000000 0.000000
45 0.933838 30.0 2224 1819 73758 11114 3844014220 4043 0.000000 0.000000
46 0.999756 30.0 3258 1795 73231 9733 3844014255 5053 0.000000 0.000000
47 1.065674 30.0 3958 1882 73294 8481 3844014291 5840 0.000000 0.000000
48 1.142578 30.0 4580 2071 73214 7062 3844014326 6651 0.000000 0.000000
