# ps_pos exposure_time(s) O-Beam H-Beam Monitor AUX-Beam time(s) O+H+AUX encod1 encod2
1 -2.131348 30.0 8454 3021 92366 6532 3843117223 11475 0.000000 0.000000
2 -2.065430 30.0 8171 3075 93394 6871 3843117258 11246 0.000000 0.000000
3 -2.010498 30.0 7186 3232 93364 8156 3843117293 10418 0.000000 0.000000
4 -1.944580 30.0 6094 3131 92775 9632 3843117328 9225 0.000000 0.000000
5 -1.867676 30.0 4620 3267 93214 11809 3843117364 7887 0.000000 0.000000
6 -1.812744 30.0 3547 3337 93106 14019 3843117399 6884 0.000000 0.000000
7 -1.746826 30.0 2571 3186 93084 15408 3843117434 5757 0.000000 0.000000
8 -1.691895 30.0 2093 3104 92825 16052 3843117469 5197 0.000000 0.000000
9 -1.614990 30.0 1998 3141 93018 16834 3843117504 5139 0.000000 0.000000
10 -1.549072 30.0 2442 2902 92967 16147 3843117540 5344 0.000000 0.000000
11 -1.483154 30.0 3172 2840 92824 15290 3843117575 6012 0.000000 0.000000
12 -1.417236 30.0 4270 2853 93299 13478 3843117610 7123 0.000000 0.000000
13 -1.362305 30.0 5642 2650 93120 11288 3843117645 8292 0.000000 0.000000
14 -1.285400 30.0 6926 2755 92851 9076 3843117680 9681 0.000000 0.000000
15 -1.230469 30.0 7607 2802 93038 8024 3843117716 10409 0.000000 0.000000
16 -1.175537 30.0 8096 2877 92840 6724 3843117751 10973 0.000000 0.000000
17 -1.109619 30.0 8558 2954 92857 6414 3843117786 11512 0.000000 0.000000
18 -1.054688 30.0 7952 3101 93007 6878 3843117821 11053 0.000000 0.000000
19 -0.955811 30.0 6803 3033 92731 8279 3843117856 9836 0.000000 0.000000
20 -0.878906 30.0 5585 3297 93326 10654 3843117891 8882 0.000000 0.000000
21 -0.823975 30.0 4234 3283 92821 12611 3843117927 7517 0.000000 0.000000
22 -0.747070 30.0 3287 3178 92767 14397 3843117962 6465 0.000000 0.000000
23 -0.692139 30.0 2496 3241 92474 15441 3843117997 5737 0.000000 0.000000
24 -0.637207 30.0 2010 3006 92829 16347 3843118032 5016 0.000000 0.000000
25 -0.582275 30.0 1980 2971 93287 16575 3843118067 4951 0.000000 0.000000
26 -0.516357 30.0 2455 2953 92882 15952 3843118103 5408 0.000000 0.000000
27 -0.439453 30.0 3319 2771 93257 14658 3843118138 6090 0.000000 0.000000
28 -0.395508 30.0 4508 2861 93241 13192 3843118173 7369 0.000000 0.000000
29 -0.318603 30.0 5676 2745 93295 11184 3843118208 8421 0.000000 0.000000
30 -0.263672 30.0 6592 2779 92709 9756 3843118243 9371 0.000000 0.000000
