# ps_pos exposure_time(s) O-Beam H-Beam Monitor AUX-Beam time(s) O+H+AUX encod1 encod2
1 -1.373291 30.0 5153 2842 92685 11982 3843118284 7995 0.000000 0.000000
2 -1.307373 30.0 6447 2725 93220 9906 3843118319 9172 0.000000 0.000000
3 -1.252441 30.0 7507 2797 92931 8257 3843118354 10304 0.000000 0.000000
4 -1.186523 30.0 8221 2837 92466 7117 3843118390 11058 0.000000 0.000000
5 -1.120605 30.0 8551 2848 93322 6401 3843118425 11399 0.000000 0.000000
6 -1.054688 30.0 8211 3062 93032 6641 3843118460 11273 0.000000 0.000000
7 -0.988769 30.0 7735 3218 92536 7468 3843118495 10953 0.000000 0.000000
8 -0.922852 30.0 6339 3093 93496 9326 3843118530 9432 0.000000 0.000000
9 -0.856934 30.0 5170 3216 93199 11167 3843118566 8386 0.000000 0.000000
10 -0.802002 30.0 3811 3280 93072 13242 3843118601 7091 0.000000 0.000000
11 -0.736084 30.0 2880 3223 93464 14873 3843118636 6103 0.000000 0.000000
12 -0.659180 30.0 2211 3183 92962 16238 3843118671 5394 0.000000 0.000000
13 -0.593262 30.0 2026 2968 92842 16463 3843118706 4994 0.000000 0.000000
14 -0.538330 30.0 2355 2993 92696 16175 3843118742 5348 0.000000 0.000000
15 -0.450439 30.0 3086 2838 92846 14844 3843118777 5924 0.000000 0.000000
16 -0.395508 30.0 4147 2863 92605 13313 3843118812 7010 0.000000 0.000000
17 -0.329590 30.0 5412 2791 92711 11484 3843118847 8203 0.000000 0.000000
18 -0.274658 30.0 6635 2774 92422 9578 3843118882 9409 0.000000 0.000000
19 -0.208740 30.0 7731 2796 93278 7930 3843118918 10527 0.000000 0.000000
20 -0.131836 30.0 8518 2785 92945 6803 3843118953 11303 0.000000 0.000000
21 -0.065918 30.0 8447 3014 92326 6301 3843118988 11461 0.000000 0.000000
22 0.010986 30.0 7863 3079 93043 7130 3843119023 10942 0.000000 0.000000
23 0.065918 30.0 7055 3171 93430 8026 3843119058 10226 0.000000 0.000000
24 0.131836 30.0 6160 3166 93331 9929 3843119094 9326 0.000000 0.000000
25 0.197754 30.0 4800 3131 93123 11905 3843119129 7931 0.000000 0.000000
26 0.263672 30.0 3673 3310 93348 13553 3843119164 6983 0.000000 0.000000
27 0.318603 30.0 2600 3189 93002 15277 3843119199 5789 0.000000 0.000000
28 0.373535 30.0 2143 3158 93104 16116 3843119235 5301 0.000000 0.000000
29 0.450439 30.0 2003 2975 93147 16434 3843119270 4978 0.000000 0.000000
30 0.516357 30.0 2283 2945 92638 16146 3843119305 5228 0.000000 0.000000
