# ps_pos exposure_time(s) O-Beam H-Beam Monitor AUX-Beam time(s) O+H+AUX encod1 encod2
1 -0.834961 30.0 1244 6786 71379 5092 3843502222 8030 0.000000 0.000000
2 -0.747070 30.0 1465 6387 71428 5070 3843502257 7852 0.000000 0.000000
3 -0.692139 30.0 2057 6049 71576 5012 3843502292 8106 0.000000 0.000000
4 -0.626221 30.0 2995 5341 71692 5058 3843502327 8336 0.000000 0.000000
5 -0.582275 30.0 3780 4489 71236 5011 3843502362 8269 0.000000 0.000000
6 -0.505371 30.0 5138 3394 71845 5092 3843502398 8532 0.000000 0.000000
7 -0.439453 30.0 5898 2661 71484 4925 3843502433 8559 0.000000 0.000000
8 -0.362549 30.0 6500 2354 71666 4998 3843502468 8854 0.000000 0.000000
9 -0.296631 30.0 6401 2250 71644 5085 3843502503 8651 0.000000 0.000000
10 -0.241699 30.0 6005 2548 71661 4898 3843502538 8553 0.000000 0.000000
11 -0.164795 30.0 5456 3115 71724 5031 3843502574 8571 0.000000 0.000000
12 -0.098877 30.0 4550 3928 71967 5009 3843502609 8478 0.000000 0.000000
13 -0.032959 30.0 3406 4777 71350 5013 3843502644 8183 0.000000 0.000000
14 0.021973 30.0 2586 5664 72210 5098 3843502679 8250 0.000000 0.000000
15 0.076904 30.0 1938 6022 71739 4977 3843502714 7960 0.000000 0.000000
16 0.142822 30.0 1328 6559 71515 4836 3843502750 7887 0.000000 0.000000
17 0.197754 30.0 1189 6671 71624 4969 3843502785 7860 0.000000 0.000000
18 0.263672 30.0 1475 6453 71844 4871 3843502820 7928 0.000000 0.000000
19 0.340576 30.0 2033 6026 71815 5068 3843502855 8059 0.000000 0.000000
20 0.406494 30.0 2638 5405 71557 4889 3843502890 8043 0.000000 0.000000
21 0.450439 30.0 3476 4561 71706 5035 3843502925 8037 0.000000 0.000000
22 0.527344 30.0 4698 3743 71746 4953 3843502961 8441 0.000000 0.000000
23 0.582275 30.0 5610 2991 71666 4954 3843502996 8601 0.000000 0.000000
24 0.637207 30.0 6127 2567 71468 4842 3843503031 8694 0.000000 0.000000
25 0.725098 30.0 6235 2236 71594 4922 3843503066 8471 0.000000 0.000000
26 0.791016 30.0 6009 2563 72097 5059 3843503101 8572 0.000000 0.000000
27 0.867920 30.0 5549 3085 71927 4894 3843503137 8634 0.000000 0.000000
28 0.933838 30.0 4428 3804 71278 4977 3843503172 8232 0.000000 0.000000
29 0.977783 30.0 3675 4568 72175 4906 3843503207 8243 0.000000 0.000000
30 1.043701 30.0 2630 5327 71742 5041 3843503242 7957 0.000000 0.000000
31 1.109619 30.0 1898 6139 72132 4963 3843503277 8037 0.000000 0.000000
32 1.197510 30.0 1346 6512 71753 5052 3843503313 7858 0.000000 0.000000
