# ps_pos exposure_time(s) O-Beam H-Beam Monitor AUX-Beam time(s) O+H+AUX encod1 encod2
1 -1.098633 30.0 4018 4348 71672 4995 3843503354 8366 0.000000 0.000000
2 -1.032715 30.0 3096 4981 72059 5004 3843503389 8077 0.000000 0.000000
3 -0.966797 30.0 2070 5985 72046 5070 3843503424 8055 0.000000 0.000000
4 -0.911865 30.0 1416 6625 71273 4907 3843503459 8041 0.000000 0.000000
5 -0.823975 30.0 1220 6632 72042 4999 3843503495 7852 0.000000 0.000000
6 -0.769043 30.0 1428 6435 71585 4987 3843503530 7863 0.000000 0.000000
7 -0.692139 30.0 2042 5909 71724 4854 3843503565 7951 0.000000 0.000000
8 -0.626221 30.0 3148 4902 71708 4924 3843503600 8050 0.000000 0.000000
9 -0.571289 30.0 4280 4009 71133 4933 3843503635 8289 0.000000 0.000000
10 -0.483398 30.0 5253 3281 72002 4991 3843503671 8534 0.000000 0.000000
11 -0.406494 30.0 6063 2500 72170 4939 3843503706 8563 0.000000 0.000000
12 -0.329590 30.0 6444 2156 71299 4815 3843503741 8600 0.000000 0.000000
13 -0.274658 30.0 6296 2290 71853 4930 3843503776 8586 0.000000 0.000000
14 -0.208740 30.0 5772 2915 71624 4957 3843503811 8687 0.000000 0.000000
15 -0.142822 30.0 5094 3310 72156 4994 3843503847 8404 0.000000 0.000000
16 -0.087891 30.0 4025 4367 71716 4910 3843503882 8392 0.000000 0.000000
17 -0.010986 30.0 2962 5082 71687 4932 3843503917 8044 0.000000 0.000000
18 0.043945 30.0 2312 5668 71823 5014 3843503952 7980 0.000000 0.000000
19 0.120850 30.0 1544 6650 71702 5116 3843503987 8194 0.000000 0.000000
20 0.164795 30.0 1203 6643 72007 5039 3843504023 7846 0.000000 0.000000
21 0.241699 30.0 1353 6645 71620 5034 3843504058 7998 0.000000 0.000000
22 0.296631 30.0 1705 6194 71571 4921 3843504093 7899 0.000000 0.000000
23 0.362549 30.0 2375 5645 71470 4834 3843504128 8020 0.000000 0.000000
24 0.450439 30.0 3504 4829 72085 4983 3843504164 8333 0.000000 0.000000
25 0.505371 30.0 4554 3872 71534 5036 3843504199 8426 0.000000 0.000000
26 0.582275 30.0 5552 3048 72258 4918 3843504234 8600 0.000000 0.000000
27 0.659180 30.0 6228 2408 72033 5034 3843504269 8636 0.000000 0.000000
28 0.725098 30.0 6331 2240 72201 4994 3843504304 8571 0.000000 0.000000
29 0.812988 30.0 6058 2595 72179 5005 3843504339 8653 0.000000 0.000000
30 0.878906 30.0 5136 3302 72039 4853 3843504375 8438 0.000000 0.000000
31 0.944824 30.0 4085 4193 71759 4943 3843504410 8278 0.000000 0.000000
32 1.010742 30.0 3058 5021 71490 4949 3843504445 8079 0.000000 0.000000
