# ps_pos exposure_time(s) O-Beam H-Beam Monitor AUX-Beam time(s) O+H+AUX encod1 encod2
1 -1.614990 30.0 3777 4457 71880 4901 3843504487 8234 0.000000 0.000000
2 -1.538086 30.0 4797 3748 71754 4935 3843504522 8545 0.000000 0.000000
3 -1.483154 30.0 5524 2908 71702 4902 3843504557 8432 0.000000 0.000000
4 -1.406250 30.0 6191 2336 71111 5009 3843504592 8527 0.000000 0.000000
5 -1.351318 30.0 6341 2205 71903 5113 3843504627 8546 0.000000 0.000000
6 -1.274414 30.0 6093 2316 71215 4941 3843504662 8409 0.000000 0.000000
7 -1.197510 30.0 5343 3080 71501 4840 3843504698 8423 0.000000 0.000000
8 -1.131592 30.0 4382 3847 71738 4952 3843504733 8229 0.000000 0.000000
9 -1.054688 30.0 3333 4970 71949 4998 3843504768 8303 0.000000 0.000000
10 -0.999756 30.0 2421 5615 71642 5000 3843504803 8036 0.000000 0.000000
11 -0.922852 30.0 1530 6341 71605 4906 3843504838 7871 0.000000 0.000000
12 -0.867920 30.0 1185 6675 71729 4954 3843504874 7860 0.000000 0.000000
13 -0.791016 30.0 1267 6666 71411 4933 3843504909 7933 0.000000 0.000000
14 -0.736084 30.0 1696 6283 71448 4901 3843504944 7979 0.000000 0.000000
15 -0.659180 30.0 2611 5585 71619 4960 3843504979 8196 0.000000 0.000000
16 -0.582275 30.0 3725 4534 71620 4995 3843505014 8259 0.000000 0.000000
17 -0.527344 30.0 4731 3745 71515 4911 3843505049 8476 0.000000 0.000000
18 -0.461426 30.0 5530 2917 71719 4913 3843505085 8447 0.000000 0.000000
19 -0.395508 30.0 6028 2375 72258 4825 3843505120 8403 0.000000 0.000000
20 -0.318603 30.0 6332 2167 72021 4914 3843505155 8499 0.000000 0.000000
21 -0.241699 30.0 6071 2430 71984 4976 3843505190 8501 0.000000 0.000000
22 -0.164795 30.0 5241 2968 71895 4750 3843505225 8209 0.000000 0.000000
23 -0.098877 30.0 4234 3836 71770 4912 3843505261 8070 0.000000 0.000000
24 -0.043945 30.0 3328 4823 71809 4982 3843505296 8151 0.000000 0.000000
25 0.010986 30.0 2622 5587 71670 4947 3843505331 8209 0.000000 0.000000
26 0.076904 30.0 1848 6133 71598 4791 3843505366 7981 0.000000 0.000000
27 0.153809 30.0 1368 6661 71848 4950 3843505401 8029 0.000000 0.000000
28 0.230713 30.0 1197 6696 72072 4910 3843505437 7893 0.000000 0.000000
29 0.296631 30.0 1618 6524 71890 4824 3843505472 8142 0.000000 0.000000
30 0.362549 30.0 2199 5877 71677 4911 3843505507 8076 0.000000 0.000000
31 0.428467 30.0 3120 4949 71545 4897 3843505542 8069 0.000000 0.000000
32 0.483398 30.0 4323 4038 71672 4780 3843505577 8361 0.000000 0.000000
