# ps_pos exposure_time(s) O-Beam H-Beam Monitor AUX-Beam time(s) O+H+AUX encod1 encod2
1 -1.351318 30.0 6355 2185 71654 4828 3843505619 8540 0.000000 0.000000
2 -1.263428 30.0 6017 2375 72335 4924 3843505654 8392 0.000000 0.000000
3 -1.219482 30.0 5447 2998 72124 4864 3843505689 8445 0.000000 0.000000
4 -1.153565 30.0 4563 3749 72175 5099 3843505724 8312 0.000000 0.000000
5 -1.065674 30.0 3573 4605 71475 5028 3843505759 8178 0.000000 0.000000
6 -1.010742 30.0 2521 5573 71642 4950 3843505794 8094 0.000000 0.000000
7 -0.933838 30.0 1644 6295 72232 4869 3843505830 7939 0.000000 0.000000
8 -0.878906 30.0 1301 6775 72065 4949 3843505865 8076 0.000000 0.000000
9 -0.791016 30.0 1282 6604 71595 4833 3843505900 7886 0.000000 0.000000
10 -0.725098 30.0 1674 6228 71602 4918 3843505935 7902 0.000000 0.000000
11 -0.659180 30.0 2623 5438 71739 4820 3843505971 8061 0.000000 0.000000
12 -0.604248 30.0 3475 4811 71850 5029 3843506006 8286 0.000000 0.000000
13 -0.538330 30.0 4315 3896 71788 4928 3843506041 8211 0.000000 0.000000
14 -0.483398 30.0 5354 3112 72456 4983 3843506076 8466 0.000000 0.000000
15 -0.417480 30.0 6048 2556 71572 4986 3843506111 8604 0.000000 0.000000
16 -0.351562 30.0 6466 2286 71466 4990 3843506147 8752 0.000000 0.000000
17 -0.296631 30.0 6238 2297 71622 4804 3843506182 8535 0.000000 0.000000
18 -0.241699 30.0 6064 2489 71464 4937 3843506217 8553 0.000000 0.000000
19 -0.164795 30.0 5213 3136 72223 4914 3843506252 8349 0.000000 0.000000
20 -0.109863 30.0 4456 3830 71734 4972 3843506288 8286 0.000000 0.000000
21 -0.032959 30.0 3255 4827 71682 4925 3843506323 8082 0.000000 0.000000
22 0.021973 30.0 2475 5496 71600 4914 3843506358 7971 0.000000 0.000000
23 0.087891 30.0 1798 6247 71841 5059 3843506393 8045 0.000000 0.000000
24 0.142822 30.0 1312 6588 71885 4883 3843506428 7900 0.000000 0.000000
25 0.208740 30.0 1218 6715 71484 4872 3843506463 7933 0.000000 0.000000
26 0.285645 30.0 1462 6391 71593 4839 3843506499 7853 0.000000 0.000000
27 0.351562 30.0 2300 5777 71678 4864 3843506534 8077 0.000000 0.000000
28 0.428467 30.0 3111 4968 71845 4813 3843506569 8079 0.000000 0.000000
29 0.494385 30.0 4219 4001 72129 4960 3843506604 8220 0.000000 0.000000
30 0.571289 30.0 5210 3080 71798 5009 3843506639 8290 0.000000 0.000000
31 0.648193 30.0 6131 2375 71694 4852 3843506675 8506 0.000000 0.000000
32 0.703125 30.0 6373 2269 71632 4822 3843506710 8642 0.000000 0.000000
