# ps_pos exposure_time(s) O-Beam H-Beam Monitor AUX-Beam time(s) O+H+AUX encod1 encod2
1 -1.966553 30.0 1763 7485 93904 8990 3843193485 9248 0.000000 0.000000
2 -1.911621 30.0 2072 6240 92802 10809 3843193521 8312 0.000000 0.000000
3 -1.834717 30.0 2113 5131 93346 12620 3843193556 7244 0.000000 0.000000
4 -1.779785 30.0 2153 4106 93067 14613 3843193592 6259 0.000000 0.000000
5 -1.713867 30.0 2206 3207 93299 16100 3843193643 5413 0.000000 0.000000
6 -1.658935 30.0 2224 2872 93662 16667 3843193678 5096 0.000000 0.000000
7 -1.593018 30.0 2100 2969 92778 16694 3843193713 5069 0.000000 0.000000
8 -1.527100 30.0 2113 3407 93125 16047 3843193748 5520 0.000000 0.000000
9 -1.461182 30.0 1940 4176 93444 14891 3843193784 6116 0.000000 0.000000
10 -1.406250 30.0 1878 5463 93022 12689 3843193819 7341 0.000000 0.000000
11 -1.329346 30.0 1654 6712 93213 10477 3843193854 8366 0.000000 0.000000
12 -1.274414 30.0 1662 7603 93129 8752 3843193889 9265 0.000000 0.000000
13 -1.186523 30.0 1585 8642 93049 7130 3843193924 10227 0.000000 0.000000
14 -1.131592 30.0 1589 8902 92911 6690 3843193960 10491 0.000000 0.000000
15 -1.065674 30.0 1758 8547 93460 6803 3843193995 10305 0.000000 0.000000
16 -0.999756 30.0 1751 8291 93283 7611 3843194032 10042 0.000000 0.000000
17 -0.955811 30.0 1920 7372 92788 8786 3843194068 9292 0.000000 0.000000
18 -0.878906 30.0 1965 6421 93156 10710 3843194103 8386 0.000000 0.000000
19 -0.802002 30.0 2062 5044 92991 13133 3843194138 7106 0.000000 0.000000
20 -0.747070 30.0 2177 4037 92737 14648 3843194173 6214 0.000000 0.000000
21 -0.692139 30.0 2162 3260 92990 15953 3843194208 5422 0.000000 0.000000
22 -0.626221 30.0 2208 2879 92958 16759 3843194243 5087 0.000000 0.000000
23 -0.571289 30.0 2060 2956 93075 16746 3843194279 5016 0.000000 0.000000
24 -0.505371 30.0 1975 3629 92999 16008 3843194314 5604 0.000000 0.000000
25 -0.450439 30.0 1895 4225 93080 14584 3843194349 6120 0.000000 0.000000
26 -0.362549 30.0 1724 5331 92975 13015 3843194384 7055 0.000000 0.000000
27 -0.329590 30.0 1739 6249 93289 11061 3843194419 7988 0.000000 0.000000
28 -0.274658 30.0 1649 7080 93012 9679 3843194455 8729 0.000000 0.000000
29 -0.197754 30.0 1583 8126 93653 7796 3843194490 9709 0.000000 0.000000
30 -0.120850 30.0 1592 8757 92664 6926 3843194525 10349 0.000000 0.000000
