# ps_pos exposure_time(s) O-Beam H-Beam Monitor AUX-Beam time(s) O+H+AUX encod1 encod2
1 -1.384277 30.0 3927 4047 72284 5143 3843827269 7974 0.000000 0.000000
2 -1.329346 30.0 4458 3540 73179 5194 3843827305 7998 0.000000 0.000000
3 -1.274414 30.0 4637 3032 72509 5824 3843827341 7669 0.000000 0.000000
4 -1.219482 30.0 4659 2523 73173 6565 3843827377 7182 0.000000 0.000000
5 -1.153565 30.0 4249 2200 72980 8164 3843827414 6449 0.000000 0.000000
6 -1.087646 30.0 3629 1991 72906 9433 3843827450 5620 0.000000 0.000000
7 -1.032715 30.0 3089 1814 72902 10884 3843827486 4903 0.000000 0.000000
8 -0.955811 30.0 2292 1902 73223 11658 3843827522 4194 0.000000 0.000000
9 -0.900879 30.0 1673 2129 72747 12254 3843827558 3802 0.000000 0.000000
10 -0.823975 30.0 1201 2626 72864 12292 3843827595 3827 0.000000 0.000000
11 -0.758057 30.0 1006 3117 72747 11543 3843827631 4123 0.000000 0.000000
12 -0.703125 30.0 1006 3707 72494 10279 3843827667 4713 0.000000 0.000000
13 -0.637207 30.0 1308 4323 73094 9005 3843827703 5631 0.000000 0.000000
14 -0.560303 30.0 1670 4753 73469 7527 3843827739 6423 0.000000 0.000000
15 -0.494385 30.0 2373 4757 72626 6318 3843827776 7130 0.000000 0.000000
16 -0.439453 30.0 2988 4821 72367 5303 3843827812 7809 0.000000 0.000000
17 -0.362549 30.0 3579 4397 73106 4940 3843827848 7976 0.000000 0.000000
18 -0.296631 30.0 3870 4009 72968 5305 3843827884 7879 0.000000 0.000000
19 -0.241699 30.0 4095 3477 72634 5913 3843827920 7572 0.000000 0.000000
20 -0.164795 30.0 4197 2830 72693 6951 3843827957 7027 0.000000 0.000000
21 -0.120850 30.0 3999 2206 72713 8307 3843827993 6205 0.000000 0.000000
22 -0.054932 30.0 3555 1971 73567 9723 3843828029 5526 0.000000 0.000000
23 0.021973 30.0 2874 1863 72699 11070 3843828065 4737 0.000000 0.000000
24 0.087891 30.0 2288 1925 72613 11838 3843828101 4213 0.000000 0.000000
25 0.153809 30.0 1574 2313 72643 12175 3843828138 3887 0.000000 0.000000
26 0.208740 30.0 1147 2678 72920 12408 3843828174 3825 0.000000 0.000000
27 0.263672 30.0 950 3127 73002 11545 3843828210 4077 0.000000 0.000000
28 0.340576 30.0 877 3660 72911 10478 3843828246 4537 0.000000 0.000000
29 0.395508 30.0 1310 4276 72383 9086 3843828282 5586 0.000000 0.000000
30 0.461426 30.0 1912 4477 72787 7543 3843828319 6389 0.000000 0.000000
31 0.527344 30.0 2588 4527 72967 6452 3843828355 7115 0.000000 0.000000
32 0.593262 30.0 3406 4290 72829 5432 3843828391 7696 0.000000 0.000000
