# ps_pos exposure_time(s) O-Beam H-Beam Monitor AUX-Beam time(s) O+H+AUX encod1 encod2
1 -1.076660 15.0 2139 1171 35997 4441 3843298353 3310 0.000000 0.000000
2 -1.021729 15.0 1775 1367 36241 4455 3843298374 3142 0.000000 0.000000
3 -0.944824 15.0 1472 1740 36099 4339 3843298394 3212 0.000000 0.000000
4 -0.878906 15.0 1093 2092 35945 4271 3843298414 3185 0.000000 0.000000
5 -0.812988 15.0 805 2412 35847 4370 3843298434 3217 0.000000 0.000000
6 -0.747070 15.0 562 2470 35830 4393 3843298454 3032 0.000000 0.000000
7 -0.681152 15.0 396 2551 35679 4476 3843298475 2947 0.000000 0.000000
8 -0.615234 15.0 571 2419 35773 4407 3843298495 2990 0.000000 0.000000
9 -0.560303 15.0 747 2261 36011 4333 3843298515 3008 0.000000 0.000000
10 -0.483398 15.0 1100 1893 36008 4407 3843298535 2993 0.000000 0.000000
11 -0.428467 15.0 1451 1760 35734 4394 3843298555 3211 0.000000 0.000000
12 -0.340576 15.0 1889 1353 35927 4393 3843298576 3242 0.000000 0.000000
13 -0.274658 15.0 2188 1031 35700 4393 3843298596 3219 0.000000 0.000000
14 -0.219727 15.0 2381 892 35849 4398 3843298616 3273 0.000000 0.000000
15 -0.131836 15.0 2353 966 35602 4365 3843298636 3319 0.000000 0.000000
16 -0.065918 15.0 2228 1099 35873 4490 3843298656 3327 0.000000 0.000000
17 0.000000 15.0 1986 1395 36001 4495 3843298677 3381 0.000000 0.000000
18 0.054932 15.0 1564 1522 35912 4440 3843298697 3086 0.000000 0.000000
19 0.109863 15.0 1262 1845 36090 4550 3843298717 3107 0.000000 0.000000
20 0.175781 15.0 936 2070 36074 4382 3843298737 3006 0.000000 0.000000
21 0.252686 15.0 660 2382 35868 4440 3843298757 3042 0.000000 0.000000
22 0.307617 15.0 498 2452 35893 4439 3843298778 2950 0.000000 0.000000
23 0.362549 15.0 483 2631 35653 4261 3843298798 3114 0.000000 0.000000
24 0.428467 15.0 548 2494 36013 4409 3843298818 3042 0.000000 0.000000
25 0.505371 15.0 731 2252 35642 4527 3843298838 2983 0.000000 0.000000
26 0.560303 15.0 1093 1998 35876 4458 3843298858 3091 0.000000 0.000000
27 0.637207 15.0 1410 1672 35950 4379 3843298879 3082 0.000000 0.000000
28 0.681152 15.0 1699 1423 35594 4575 3843298899 3122 0.000000 0.000000
29 0.758057 15.0 2094 1132 35796 4368 3843298919 3226 0.000000 0.000000
30 0.812988 15.0 2240 899 35908 4399 3843298939 3139 0.000000 0.000000
