# ps_pos exposure_time(s) O-Beam H-Beam Monitor AUX-Beam time(s) O+H+AUX encod1 encod2
1 -1.175537 30.0 1245 5388 73179 6641 3843926422 6633 0.000000 0.000000
2 -1.120605 30.0 1347 4681 73294 7966 3843926458 6028 0.000000 0.000000
3 -1.032715 30.0 1232 3881 73391 9658 3843926495 5113 0.000000 0.000000
4 -0.977783 30.0 1379 3153 73726 10533 3843926531 4532 0.000000 0.000000
5 -0.911865 30.0 1478 2578 73260 11699 3843926567 4056 0.000000 0.000000
6 -0.845947 30.0 1405 2326 73540 12201 3843926603 3731 0.000000 0.000000
7 -0.780029 30.0 1497 2510 73513 12154 3843926639 4007 0.000000 0.000000
8 -0.725098 30.0 1343 2695 73299 11416 3843926676 4038 0.000000 0.000000
9 -0.659180 30.0 1320 3486 73514 10153 3843926712 4806 0.000000 0.000000
10 -0.593262 30.0 1200 4408 73195 8799 3843926748 5608 0.000000 0.000000
11 -0.527344 30.0 1103 5133 72702 7459 3843926784 6236 0.000000 0.000000
12 -0.450439 30.0 1183 5826 73522 6006 3843926820 7009 0.000000 0.000000
13 -0.384522 30.0 1164 6297 73186 5176 3843926857 7461 0.000000 0.000000
14 -0.329590 30.0 1179 6428 72981 4914 3843926893 7607 0.000000 0.000000
15 -0.263672 30.0 1278 6296 73150 4936 3843926929 7574 0.000000 0.000000
16 -0.186768 30.0 1334 5741 73221 5824 3843926965 7075 0.000000 0.000000
17 -0.120850 30.0 1420 5098 73526 7006 3843927001 6518 0.000000 0.000000
18 -0.054932 30.0 1407 4390 73217 8307 3843927038 5797 0.000000 0.000000
19 0.010986 30.0 1404 3516 73589 9810 3843927074 4920 0.000000 0.000000
20 0.065918 30.0 1551 2839 73965 10754 3843927110 4390 0.000000 0.000000
21 0.120850 30.0 1511 2399 73127 11668 3843927146 3910 0.000000 0.000000
22 0.186768 30.0 1559 2179 72982 12077 3843927182 3738 0.000000 0.000000
23 0.241699 30.0 1423 2373 73344 12077 3843927219 3796 0.000000 0.000000
24 0.307617 30.0 1297 2784 73113 11436 3843927255 4081 0.000000 0.000000
25 0.373535 30.0 1125 3514 73509 10368 3843927291 4639 0.000000 0.000000
26 0.428467 30.0 1095 4174 73976 9277 3843927327 5269 0.000000 0.000000
27 0.505371 30.0 937 5191 73346 7891 3843927363 6128 0.000000 0.000000
28 0.571289 30.0 996 5670 72894 6405 3843927400 6666 0.000000 0.000000
29 0.637207 30.0 1050 6171 73742 5398 3843927436 7221 0.000000 0.000000
30 0.692139 30.0 1240 6358 73426 5017 3843927472 7598 0.000000 0.000000
31 0.769043 30.0 1348 6143 73660 4871 3843927508 7491 0.000000 0.000000
32 0.834961 30.0 1532 5725 73484 5593 3843927544 7257 0.000000 0.000000
33 0.900879 30.0 1649 5026 73344 6862 3843927581 6675 0.000000 0.000000
34 0.933838 30.0 1799 4428 73366 7693 3843927617 6227 0.000000 0.000000
35 1.010742 30.0 1746 3488 73633 9249 3843927653 5234 0.000000 0.000000
36 1.087646 30.0 1705 2806 73494 10643 3843927689 4511 0.000000 0.000000
37 1.153565 30.0 1688 2361 73060 11757 3843927725 4049 0.000000 0.000000
38 1.230469 30.0 1493 2212 73041 12163 3843927762 3705 0.000000 0.000000
39 1.285400 30.0 1358 2428 73566 12047 3843927798 3786 0.000000 0.000000
40 1.351318 30.0 1067 2915 73721 11557 3843927834 3982 0.000000 0.000000
41 1.406250 30.0 1065 3665 73023 10301 3843927870 4730 0.000000 0.000000
42 1.494141 30.0 1091 4589 73541 8580 3843927907 5680 0.000000 0.000000
43 1.549072 30.0 938 5407 73962 7101 3843927943 6345 0.000000 0.000000
44 1.614990 30.0 1022 6106 73407 5888 3843927979 7128 0.000000 0.000000
45 1.669922 30.0 1149 6456 73803 5195 3843928015 7605 0.000000 0.000000
46 1.735840 30.0 1257 6335 73038 4822 3843928052 7592 0.000000 0.000000
47 1.801758 30.0 1469 6164 73500 4974 3843928088 7633 0.000000 0.000000
48 1.878662 30.0 1634 5545 73026 5684 3843928124 7179 0.000000 0.000000
49 1.933594 30.0 1693 4993 72825 6800 3843928160 6686 0.000000 0.000000
50 1.988525 30.0 1821 4127 73141 8158 3843928196 5948 0.000000 0.000000
51 2.054443 30.0 2012 3267 73261 9341 3843928233 5279 0.000000 0.000000
52 2.120361 30.0 1741 2744 73590 10879 3843928269 4485 0.000000 0.000000
53 2.186279 30.0 1606 2403 73679 11796 3843928305 4009 0.000000 0.000000
54 2.241211 30.0 1415 2172 73153 12243 3843928341 3587 0.000000 0.000000
55 2.307129 30.0 1282 2423 73316 11967 3843928377 3705 0.000000 0.000000
56 2.373047 30.0 1145 2874 73555 11255 3843928414 4019 0.000000 0.000000
57 2.449951 30.0 1030 3632 72828 9987 3843928450 4662 0.000000 0.000000
58 2.515869 30.0 974 4559 73276 8583 3843928486 5533 0.000000 0.000000
59 2.581787 30.0 1012 5356 73361 7214 3843928522 6368 0.000000 0.000000
60 2.647705 30.0 1018 5960 73183 6090 3843928558 6978 0.000000 0.000000
61 2.702637 30.0 1068 6378 73816 5224 3843928595 7446 0.000000 0.000000
62 2.779541 30.0 1282 6270 73728 4846 3843928631 7552 0.000000 0.000000
63 2.845459 30.0 1462 6146 74062 4973 3843928667 7608 0.000000 0.000000
64 2.900391 30.0 1629 5570 72605 5556 3843928703 7199 0.000000 0.000000
