# ps_pos exposure_time(s) O-Beam H-Beam Monitor AUX-Beam time(s) O+H+AUX encod1 encod2
1 -1.164551 30.0 1305 6586 72592 5017 3843782426 7891 0.000000 0.000000
2 -1.109619 30.0 1446 6329 72973 5186 3843782461 7775 0.000000 0.000000
3 -1.054688 30.0 1465 6020 72827 5837 3843782496 7485 0.000000 0.000000
4 -0.988769 30.0 1537 5464 72611 6898 3843782531 7001 0.000000 0.000000
5 -0.922852 30.0 1463 4524 72738 8281 3843782567 5987 0.000000 0.000000
6 -0.845947 30.0 1618 3855 73435 9712 3843782602 5473 0.000000 0.000000
7 -0.780029 30.0 1580 3161 73291 11294 3843782637 4741 0.000000 0.000000
8 -0.714111 30.0 1558 2631 72692 12224 3843782673 4189 0.000000 0.000000
9 -0.648193 30.0 1485 2346 72907 12420 3843782708 3831 0.000000 0.000000
10 -0.582275 30.0 1412 2510 73147 12240 3843782743 3922 0.000000 0.000000
11 -0.516357 30.0 1413 3077 73100 11760 3843782778 4490 0.000000 0.000000
12 -0.450439 30.0 1311 3729 73357 10318 3843782814 5040 0.000000 0.000000
13 -0.384522 30.0 1204 4537 72519 9057 3843782849 5741 0.000000 0.000000
14 -0.318603 30.0 1192 5432 73105 7436 3843782884 6624 0.000000 0.000000
15 -0.252686 30.0 1286 5985 72635 6070 3843782919 7271 0.000000 0.000000
16 -0.197754 30.0 1240 6254 72420 5344 3843782955 7494 0.000000 0.000000
17 -0.131836 30.0 1296 6672 72726 5076 3843782990 7968 0.000000 0.000000
18 -0.076904 30.0 1390 6405 73121 5173 3843783025 7795 0.000000 0.000000
19 -0.010986 30.0 1506 5933 72991 6088 3843783061 7439 0.000000 0.000000
20 0.054932 30.0 1558 5362 73296 6918 3843783096 6920 0.000000 0.000000
21 0.120850 30.0 1549 4590 73034 8625 3843783131 6139 0.000000 0.000000
22 0.197754 30.0 1568 3500 72293 10199 3843783167 5068 0.000000 0.000000
23 0.263672 30.0 1635 2943 72731 11685 3843783202 4578 0.000000 0.000000
24 0.340576 30.0 1566 2382 72924 12246 3843783237 3948 0.000000 0.000000
25 0.417480 30.0 1493 2342 73057 12569 3843783272 3835 0.000000 0.000000
26 0.472412 30.0 1437 2590 72900 12082 3843783308 4027 0.000000 0.000000
27 0.538330 30.0 1338 3124 73021 11381 3843783343 4462 0.000000 0.000000
28 0.604248 30.0 1313 3966 73233 10153 3843783378 5279 0.000000 0.000000
29 0.670166 30.0 1252 4841 73251 8533 3843783414 6093 0.000000 0.000000
30 0.736084 30.0 1212 5644 73141 6853 3843783449 6856 0.000000 0.000000
31 0.802002 30.0 1157 6254 72850 5861 3843783484 7411 0.000000 0.000000
32 0.867920 30.0 1286 6669 72739 5095 3843783520 7955 0.000000 0.000000
