# ps_pos exposure_time(s) O-Beam H-Beam Monitor AUX-Beam time(s) O+H+AUX encod1 encod2
1 -0.241699 15.0 1251 1482 35954 4711 3843567275 2733 0.000000 0.000000
2 -0.175781 15.0 1300 1879 36170 4077 3843567297 3179 0.000000 0.000000
3 -0.120850 15.0 1198 2332 36260 3477 3843567318 3530 0.000000 0.000000
4 -0.076904 15.0 1014 2608 35960 3000 3843567339 3622 0.000000 0.000000
5 -0.000000 15.0 847 3042 36267 2600 3843567360 3889 0.000000 0.000000
6 0.065918 15.0 766 3086 36345 2423 3843567381 3852 0.000000 0.000000
7 0.120850 15.0 645 3185 36227 2541 3843567403 3830 0.000000 0.000000
8 0.197754 15.0 541 3008 35780 3147 3843567424 3549 0.000000 0.000000
9 0.274658 15.0 464 2789 36047 3812 3843567445 3253 0.000000 0.000000
10 0.340576 15.0 420 2333 35934 4493 3843567466 2753 0.000000 0.000000
11 0.406494 15.0 456 1878 36192 5285 3843567488 2334 0.000000 0.000000
12 0.461426 15.0 529 1559 35793 5843 3843567509 2088 0.000000 0.000000
13 0.527344 15.0 652 1345 36231 6241 3843567530 1997 0.000000 0.000000
14 0.604248 15.0 800 1163 35797 6152 3843567551 1963 0.000000 0.000000
15 0.670166 15.0 876 1161 36092 6026 3843567573 2037 0.000000 0.000000
16 0.736084 15.0 960 1269 36021 5372 3843567594 2229 0.000000 0.000000
17 0.802002 15.0 1003 1690 36065 4573 3843567615 2693 0.000000 0.000000
18 0.856934 15.0 995 2072 35828 3996 3843567636 3067 0.000000 0.000000
19 0.922852 15.0 948 2419 36123 3282 3843567657 3367 0.000000 0.000000
20 1.021729 15.0 945 2856 35515 2665 3843567679 3801 0.000000 0.000000
21 1.076660 15.0 827 3067 36164 2496 3843567700 3894 0.000000 0.000000
22 1.131592 15.0 636 3182 36236 2464 3843567721 3818 0.000000 0.000000
23 1.208496 15.0 576 3000 36057 2785 3843567742 3576 0.000000 0.000000
24 1.263428 15.0 493 2880 36349 3290 3843567763 3373 0.000000 0.000000
25 1.329346 15.0 425 2519 35604 4064 3843567785 2944 0.000000 0.000000
26 1.406250 15.0 421 2097 35944 4961 3843567806 2518 0.000000 0.000000
27 1.472168 15.0 507 1666 35837 5561 3843567827 2173 0.000000 0.000000
28 1.538086 15.0 562 1248 35876 6086 3843567848 1810 0.000000 0.000000
29 1.647949 15.0 781 1052 36082 6179 3843567869 1833 0.000000 0.000000
30 1.680908 15.0 905 1086 36234 5916 3843567891 1991 0.000000 0.000000
31 1.746826 15.0 987 1260 36056 5407 3843567912 2247 0.000000 0.000000
32 1.823730 15.0 1106 1486 36173 4871 3843567933 2592 0.000000 0.000000
