# ps_pos exposure_time(s) O-Beam H-Beam Monitor AUX-Beam time(s) O+H+AUX encod1 encod2
1 1.647949 30.0 3098 2314 72963 10675 3843278739 5412 0.000000 0.000000
2 1.571045 30.0 2511 2088 72971 11707 3843278776 4599 0.000000 0.000000
3 1.505127 30.0 2142 2048 72760 12593 3843278812 4190 0.000000 0.000000
4 1.439209 30.0 1478 2343 72636 12802 3843278848 3821 0.000000 0.000000
5 1.373291 30.0 1140 3038 73107 12272 3843278884 4178 0.000000 0.000000
6 1.307373 30.0 835 3831 72651 11359 3843278921 4666 0.000000 0.000000
7 1.241455 30.0 759 4604 72653 10178 3843278957 5363 0.000000 0.000000
8 1.153565 30.0 929 5333 72930 8353 3843278993 6262 0.000000 0.000000
9 1.109619 30.0 1228 5973 72826 7015 3843279029 7201 0.000000 0.000000
10 1.043701 30.0 1634 6119 73036 5784 3843279065 7753 0.000000 0.000000
11 0.977783 30.0 2195 5985 72893 5419 3843279101 8180 0.000000 0.000000
12 0.911865 30.0 2732 5502 72439 5118 3843279138 8234 0.000000 0.000000
13 0.845947 30.0 2988 5155 73181 5418 3843279174 8143 0.000000 0.000000
14 0.780029 30.0 3175 4455 72416 6584 3843279210 7630 0.000000 0.000000
15 0.725098 30.0 3116 3551 73029 7829 3843279246 6667 0.000000 0.000000
16 0.659180 30.0 2863 3025 72707 9716 3843279283 5888 0.000000 0.000000
17 0.582275 30.0 2448 2421 72954 11282 3843279319 4869 0.000000 0.000000
18 0.527344 30.0 2106 2225 73143 12291 3843279355 4331 0.000000 0.000000
19 0.472412 30.0 1890 2140 72686 12933 3843279391 4030 0.000000 0.000000
20 0.373535 30.0 1466 2522 72582 12709 3843279427 3988 0.000000 0.000000
21 0.318603 30.0 1064 3152 72845 12395 3843279464 4216 0.000000 0.000000
22 0.263672 30.0 835 3869 72534 11227 3843279500 4704 0.000000 0.000000
23 0.175781 30.0 831 4845 72858 9512 3843279536 5676 0.000000 0.000000
24 0.087891 30.0 942 5776 72711 7510 3843279572 6718 0.000000 0.000000
25 0.021973 30.0 1163 6302 72826 6215 3843279608 7465 0.000000 0.000000
26 -0.032959 30.0 1426 6501 72538 5276 3843279645 7927 0.000000 0.000000
27 -0.109863 30.0 1729 6269 72856 5105 3843279681 7998 0.000000 0.000000
28 -0.175781 30.0 2204 5803 73244 5544 3843279717 8007 0.000000 0.000000
29 -0.252686 30.0 2288 5185 72851 6274 3843279753 7473 0.000000 0.000000
30 -0.307617 30.0 2169 4408 72966 7901 3843279789 6577 0.000000 0.000000
