# ps_pos exposure_time(s) O-Beam H-Beam Monitor AUX-Beam time(s) O+H+AUX encod1 encod2
1 -0.856934 30.0 4757 3324 72549 5054 3843748805 8081 0.000000 0.000000
2 -0.812988 30.0 5038 2938 72326 5184 3843748841 7976 0.000000 0.000000
3 -0.736084 30.0 5203 2515 72848 5930 3843748878 7718 0.000000 0.000000
4 -0.681152 30.0 4964 2199 72590 7052 3843748914 7163 0.000000 0.000000
5 -0.615234 30.0 4180 1845 72535 8607 3843748951 6025 0.000000 0.000000
6 -0.560303 30.0 3418 1705 72547 10021 3843748987 5123 0.000000 0.000000
7 -0.494385 30.0 2715 1777 72407 11163 3843749024 4492 0.000000 0.000000
8 -0.428467 30.0 1899 2027 72549 11936 3843749060 3926 0.000000 0.000000
9 -0.340576 30.0 1278 2353 72765 12199 3843749096 3631 0.000000 0.000000
10 -0.285645 30.0 1036 2789 73198 11791 3843749133 3825 0.000000 0.000000
11 -0.219727 30.0 1114 3159 72546 10905 3843749169 4273 0.000000 0.000000
12 -0.153809 30.0 1470 3779 72914 9718 3843749206 5249 0.000000 0.000000
13 -0.076904 30.0 2046 3830 72551 8246 3843749242 5876 0.000000 0.000000
14 -0.021973 30.0 2901 3805 72748 6949 3843749278 6706 0.000000 0.000000
15 0.043945 30.0 3770 3912 72445 5720 3843749315 7682 0.000000 0.000000
16 0.120850 30.0 4409 3768 72982 4857 3843749351 8177 0.000000 0.000000
17 0.175781 30.0 4945 3343 72602 4877 3843749387 8288 0.000000 0.000000
18 0.252686 30.0 5339 2831 72740 5257 3843749424 8170 0.000000 0.000000
19 0.307617 30.0 5163 2399 73013 6154 3843749460 7562 0.000000 0.000000
20 0.384522 30.0 4679 1873 72891 7616 3843749496 6552 0.000000 0.000000
21 0.450439 30.0 4103 1745 72298 9193 3843749533 5848 0.000000 0.000000
22 0.516357 30.0 3291 1641 72559 10412 3843749569 4932 0.000000 0.000000
23 0.593262 30.0 2340 1832 72449 11648 3843749606 4172 0.000000 0.000000
24 0.659180 30.0 1681 2167 72655 12315 3843749642 3848 0.000000 0.000000
25 0.714111 30.0 1091 2530 72909 12183 3843749679 3621 0.000000 0.000000
26 0.802002 30.0 1022 3023 72515 11440 3843749715 4045 0.000000 0.000000
27 0.856934 30.0 1225 3488 72248 10508 3843749751 4713 0.000000 0.000000
28 0.922852 30.0 1916 3652 72604 9029 3843749788 5568 0.000000 0.000000
29 0.966797 30.0 2616 3667 72882 7702 3843749824 6283 0.000000 0.000000
30 1.043701 30.0 3465 3702 72630 6274 3843749861 7167 0.000000 0.000000
31 1.120605 30.0 4197 3642 72395 5329 3843749897 7839 0.000000 0.000000
32 1.175537 30.0 4994 3245 72570 4688 3843749933 8239 0.000000 0.000000
