# ps_pos exposure_time(s) O-Beam H-Beam Monitor AUX-Beam time(s) O+H+AUX encod1 encod2
1 -1.384277 30.0 1389 2404 72469 12274 3843747633 3793 0.000000 0.000000
2 -1.318359 30.0 924 2936 73079 11875 3843747670 3860 0.000000 0.000000
3 -1.241455 30.0 767 3451 72258 11041 3843747706 4218 0.000000 0.000000
4 -1.175537 30.0 814 4228 72740 9686 3843747742 5042 0.000000 0.000000
5 -1.120605 30.0 1153 4788 72240 8036 3843747778 5941 0.000000 0.000000
6 -1.054688 30.0 1744 4848 72155 6879 3843747815 6592 0.000000 0.000000
7 -0.999756 30.0 2417 4812 72686 5717 3843747851 7229 0.000000 0.000000
8 -0.922852 30.0 3094 4753 72239 5047 3843747887 7847 0.000000 0.000000
9 -0.867920 30.0 3549 4474 72964 4790 3843747924 8023 0.000000 0.000000
10 -0.802002 30.0 3971 3779 72618 5041 3843747960 7750 0.000000 0.000000
11 -0.736084 30.0 4335 3309 72679 5928 3843747996 7644 0.000000 0.000000
12 -0.670166 30.0 4138 2693 72824 6996 3843748033 6831 0.000000 0.000000
13 -0.615234 30.0 3698 2167 72907 8744 3843748069 5865 0.000000 0.000000
14 -0.549316 30.0 3099 1866 72957 10099 3843748106 4965 0.000000 0.000000
15 -0.472412 30.0 2463 1814 73299 11217 3843748142 4277 0.000000 0.000000
16 -0.417480 30.0 1802 1988 72479 11985 3843748179 3790 0.000000 0.000000
17 -0.340576 30.0 1320 2394 72777 12270 3843748215 3714 0.000000 0.000000
18 -0.285645 30.0 864 2956 73158 11624 3843748251 3820 0.000000 0.000000
19 -0.208740 30.0 743 3671 72364 10857 3843748288 4414 0.000000 0.000000
20 -0.142822 30.0 985 3996 72286 9596 3843748324 4981 0.000000 0.000000
21 -0.076904 30.0 1560 4520 72364 8166 3843748360 6080 0.000000 0.000000
22 -0.010986 30.0 2166 4531 72247 6636 3843748397 6697 0.000000 0.000000
23 0.043945 30.0 2782 4612 72680 5632 3843748433 7394 0.000000 0.000000
24 0.109863 30.0 3664 4296 72936 5091 3843748469 7960 0.000000 0.000000
25 0.175781 30.0 4271 3728 72226 4774 3843748506 7999 0.000000 0.000000
26 0.230713 30.0 4749 3325 72929 5054 3843748542 8074 0.000000 0.000000
27 0.296631 30.0 4747 2736 72280 5843 3843748578 7483 0.000000 0.000000
28 0.373535 30.0 4587 2252 72682 7081 3843748615 6839 0.000000 0.000000
29 0.417480 30.0 4189 1892 72998 8492 3843748651 6081 0.000000 0.000000
30 0.494385 30.0 3581 1735 72958 9633 3843748687 5316 0.000000 0.000000
31 0.538330 30.0 2670 1777 72650 10891 3843748724 4447 0.000000 0.000000
32 0.615234 30.0 2055 1943 72541 11927 3843748760 3998 0.000000 0.000000
