# ps_pos exposure_time(s) O-Beam H-Beam Monitor AUX-Beam time(s) O+H+AUX encod1 encod2
1 -0.351562 30.0 3890 2254 70964 8594 3843349191 6144 0.000000 0.000000
2 -0.296631 30.0 4119 1979 71581 8705 3843349226 6098 0.000000 0.000000
3 -0.230713 30.0 4417 1834 71428 8824 3843349261 6251 0.000000 0.000000
4 -0.164795 30.0 4279 1955 71932 8703 3843349296 6234 0.000000 0.000000
5 -0.109863 30.0 3993 2244 71764 8592 3843349332 6237 0.000000 0.000000
6 -0.032959 30.0 3333 2690 71536 8684 3843349367 6023 0.000000 0.000000
7 0.021973 30.0 2708 3219 71504 8766 3843349402 5927 0.000000 0.000000
8 0.087891 30.0 2098 3728 71800 8530 3843349437 5826 0.000000 0.000000
9 0.142822 30.0 1513 4259 71327 8683 3843349472 5772 0.000000 0.000000
10 0.208740 30.0 988 4744 71618 8469 3843349508 5732 0.000000 0.000000
11 0.285645 30.0 679 4827 71697 8645 3843349543 5506 0.000000 0.000000
12 0.362549 30.0 820 4858 71419 8607 3843349578 5678 0.000000 0.000000
13 0.428467 30.0 1187 4511 71362 8594 3843349613 5698 0.000000 0.000000
14 0.472412 30.0 1801 4220 71515 8463 3843349648 6021 0.000000 0.000000
15 0.560303 30.0 2393 3450 71702 8651 3843349684 5843 0.000000 0.000000
16 0.615234 30.0 2993 2981 72027 8567 3843349719 5974 0.000000 0.000000
17 0.670166 30.0 3762 2390 71675 8703 3843349754 6152 0.000000 0.000000
18 0.747070 30.0 4317 1903 71998 8684 3843349789 6220 0.000000 0.000000
19 0.834961 30.0 4454 1820 71797 8600 3843349824 6274 0.000000 0.000000
20 0.878906 30.0 4199 1818 71282 8559 3843349860 6017 0.000000 0.000000
21 0.944824 30.0 3754 2312 71321 8803 3843349895 6066 0.000000 0.000000
22 1.010742 30.0 3273 2682 71820 8503 3843349930 5955 0.000000 0.000000
23 1.065674 30.0 2458 3390 71673 8501 3843349965 5848 0.000000 0.000000
24 1.131592 30.0 1835 3990 71461 8509 3843350000 5825 0.000000 0.000000
25 1.208496 30.0 1280 4560 71628 8635 3843350036 5840 0.000000 0.000000
26 1.285400 30.0 758 4893 71407 8656 3843350071 5651 0.000000 0.000000
27 1.351318 30.0 757 4937 71553 8526 3843350106 5694 0.000000 0.000000
28 1.428223 30.0 953 4889 71965 8559 3843350141 5842 0.000000 0.000000
29 1.483154 30.0 1337 4298 71699 8631 3843350176 5635 0.000000 0.000000
30 1.549072 30.0 2003 3794 71422 8592 3843350212 5797 0.000000 0.000000
