# ps_pos exposure_time(s) O-Beam H-Beam Monitor AUX-Beam time(s) O+H+AUX encod1 encod2
1 -1.614990 30.0 3380 4859 73089 5082 3843766583 8239 0.000000 0.000000
2 -1.549072 30.0 4460 3931 72971 5003 3843766618 8391 0.000000 0.000000
3 -1.472168 30.0 5360 3084 73361 5077 3843766653 8444 0.000000 0.000000
4 -1.417236 30.0 6023 2569 72606 5049 3843766688 8592 0.000000 0.000000
5 -1.351318 30.0 6259 2234 72260 5061 3843766724 8493 0.000000 0.000000
6 -1.296387 30.0 6274 2345 73039 4892 3843766759 8619 0.000000 0.000000
7 -1.230469 30.0 5749 2686 72903 4925 3843766794 8435 0.000000 0.000000
8 -1.164551 30.0 5188 3394 72892 4989 3843766830 8582 0.000000 0.000000
9 -1.109619 30.0 4048 4325 73082 5085 3843766865 8373 0.000000 0.000000
10 -1.032715 30.0 3167 5088 72714 5113 3843766900 8255 0.000000 0.000000
11 -0.977783 30.0 2051 5988 72761 5124 3843766936 8039 0.000000 0.000000
12 -0.900879 30.0 1510 6453 72589 4943 3843766971 7963 0.000000 0.000000
13 -0.845947 30.0 1219 6584 72301 4970 3843767006 7803 0.000000 0.000000
14 -0.769043 30.0 1429 6583 72833 5028 3843767042 8012 0.000000 0.000000
15 -0.703125 30.0 2026 6167 72961 5062 3843767077 8193 0.000000 0.000000
16 -0.637207 30.0 2805 5242 73217 4994 3843767112 8047 0.000000 0.000000
17 -0.571289 30.0 3817 4469 72862 5194 3843767147 8286 0.000000 0.000000
18 -0.505371 30.0 4928 3534 72827 5031 3843767183 8462 0.000000 0.000000
19 -0.439453 30.0 5657 2945 72850 5027 3843767218 8602 0.000000 0.000000
20 -0.384522 30.0 6288 2340 72639 5082 3843767253 8628 0.000000 0.000000
21 -0.296631 30.0 6330 2207 73011 5022 3843767289 8537 0.000000 0.000000
22 -0.241699 30.0 5990 2487 72870 4998 3843767324 8477 0.000000 0.000000
23 -0.164795 30.0 5457 3231 73049 4933 3843767359 8688 0.000000 0.000000
24 -0.109863 30.0 4460 3696 73100 5046 3843767394 8156 0.000000 0.000000
25 -0.032959 30.0 3437 4757 72914 5095 3843767430 8194 0.000000 0.000000
26 0.032959 30.0 2667 5349 73235 5130 3843767465 8016 0.000000 0.000000
27 0.087891 30.0 1994 6063 72494 5029 3843767500 8057 0.000000 0.000000
28 0.175781 30.0 1426 6531 72461 5026 3843767536 7957 0.000000 0.000000
29 0.230713 30.0 1240 6669 72761 5000 3843767571 7909 0.000000 0.000000
30 0.296631 30.0 1587 6538 72765 4993 3843767606 8125 0.000000 0.000000
31 0.373535 30.0 2416 5605 72428 5074 3843767642 8021 0.000000 0.000000
32 0.439453 30.0 3281 4955 72553 5036 3843767677 8236 0.000000 0.000000
