# ps_pos exposure_time(s) O-Beam H-Beam Monitor AUX-Beam time(s) O+H+AUX encod1 encod2
1 -1.373291 30.0 6114 2278 72724 4871 3843830669 8392 0.000000 0.000000
2 -1.307373 30.0 5913 2146 72524 5321 3843830705 8059 0.000000 0.000000
3 -1.230469 30.0 5337 1978 72575 6143 3843830742 7315 0.000000 0.000000
4 -1.175537 30.0 4538 2149 73509 7594 3843830778 6687 0.000000 0.000000
5 -1.098633 30.0 3597 2156 72925 8992 3843830814 5753 0.000000 0.000000
6 -1.032715 30.0 2875 2184 73474 10302 3843830850 5059 0.000000 0.000000
7 -0.977783 30.0 2118 2204 72963 11586 3843830886 4322 0.000000 0.000000
8 -0.911865 30.0 1566 2360 73107 12198 3843830923 3926 0.000000 0.000000
9 -0.856934 30.0 1314 2459 73020 12264 3843830959 3773 0.000000 0.000000
10 -0.780029 30.0 1420 2583 73129 11800 3843830995 4003 0.000000 0.000000
11 -0.714111 30.0 1944 2494 72976 11032 3843831031 4438 0.000000 0.000000
12 -0.670166 30.0 2607 2542 72912 9952 3843831067 5149 0.000000 0.000000
13 -0.593262 30.0 3746 2479 72471 8277 3843831104 6225 0.000000 0.000000
14 -0.527344 30.0 4581 2536 72833 6786 3843831140 7117 0.000000 0.000000
15 -0.461426 30.0 5278 2537 72695 5922 3843831176 7815 0.000000 0.000000
16 -0.406494 30.0 5770 2372 72611 5131 3843831212 8142 0.000000 0.000000
17 -0.340576 30.0 5885 2230 72875 5030 3843831248 8115 0.000000 0.000000
18 -0.274658 30.0 5973 2234 72805 5305 3843831285 8207 0.000000 0.000000
19 -0.230713 30.0 5363 2259 73519 5882 3843831321 7622 0.000000 0.000000
20 -0.164795 30.0 4613 2220 73017 7154 3843831357 6833 0.000000 0.000000
21 -0.098877 30.0 3872 2309 73314 8346 3843831393 6181 0.000000 0.000000
22 -0.032959 30.0 2771 2522 73604 9715 3843831429 5293 0.000000 0.000000
23 0.032959 30.0 2174 2439 73204 10925 3843831466 4613 0.000000 0.000000
24 0.109863 30.0 1564 2382 72758 11923 3843831502 3946 0.000000 0.000000
25 0.164795 30.0 1336 2404 73161 12301 3843831538 3740 0.000000 0.000000
26 0.241699 30.0 1525 2476 72987 11922 3843831574 4001 0.000000 0.000000
27 0.307617 30.0 2084 2401 73104 11172 3843831610 4485 0.000000 0.000000
28 0.384522 30.0 2786 2441 73318 9775 3843831647 5227 0.000000 0.000000
29 0.428467 30.0 3580 2339 72568 8646 3843831683 5919 0.000000 0.000000
30 0.494385 30.0 4431 2366 72717 7092 3843831719 6797 0.000000 0.000000
31 0.560303 30.0 5208 2407 72742 5735 3843831755 7615 0.000000 0.000000
32 0.637207 30.0 5713 2352 72984 5150 3843831791 8065 0.000000 0.000000
