# ps_pos exposure_time(s) O-Beam H-Beam Monitor AUX-Beam time(s) O+H+AUX encod1 encod2
1 -0.263672 30.0 1370 3049 72659 11492 3843735916 4419 0.000000 0.000000
2 -0.197754 30.0 1374 3718 72486 10311 3843735952 5092 0.000000 0.000000
3 -0.142822 30.0 1179 4455 72647 8927 3843735989 5634 0.000000 0.000000
4 -0.076904 30.0 1291 5299 72971 7283 3843736025 6590 0.000000 0.000000
5 -0.021973 30.0 1188 5945 73110 6342 3843736061 7133 0.000000 0.000000
6 0.065918 30.0 1253 6417 72769 5222 3843736098 7670 0.000000 0.000000
7 0.109863 30.0 1366 6578 72961 4984 3843736134 7944 0.000000 0.000000
8 0.186768 30.0 1444 6372 72642 5253 3843736170 7816 0.000000 0.000000
9 0.252686 30.0 1587 5917 72705 5831 3843736207 7504 0.000000 0.000000
10 0.307617 30.0 1678 5088 73181 6865 3843736243 6766 0.000000 0.000000
11 0.362549 30.0 1762 4425 72922 8398 3843736279 6187 0.000000 0.000000
12 0.439453 30.0 1766 3553 72561 9810 3843736316 5319 0.000000 0.000000
13 0.505371 30.0 1842 2961 72422 11008 3843736352 4803 0.000000 0.000000
14 0.571289 30.0 1735 2470 72343 11847 3843736388 4205 0.000000 0.000000
15 0.637207 30.0 1492 2168 72905 12533 3843736425 3660 0.000000 0.000000
16 0.703125 30.0 1401 2434 72954 12401 3843736461 3835 0.000000 0.000000
17 0.758057 30.0 1271 3044 72528 11705 3843736497 4315 0.000000 0.000000
18 0.834961 30.0 1068 3994 73205 10263 3843736534 5062 0.000000 0.000000
19 0.889893 30.0 920 4773 72744 8793 3843736570 5693 0.000000 0.000000
20 0.955811 30.0 944 5396 72791 7503 3843736607 6340 0.000000 0.000000
21 1.021729 30.0 1098 6129 72331 6358 3843736643 7227 0.000000 0.000000
22 1.087646 30.0 1177 6319 72483 5380 3843736679 7496 0.000000 0.000000
23 1.142578 30.0 1489 6321 73177 4882 3843736716 7810 0.000000 0.000000
24 1.230469 30.0 1595 6058 72608 5105 3843736752 7653 0.000000 0.000000
25 1.285400 30.0 1957 5691 72185 5809 3843736789 7648 0.000000 0.000000
26 1.340332 30.0 2001 4864 72513 7113 3843736825 6865 0.000000 0.000000
27 1.417236 30.0 2030 3937 72466 8569 3843736861 5967 0.000000 0.000000
28 1.483154 30.0 2004 3191 72128 10111 3843736898 5195 0.000000 0.000000
29 1.538086 30.0 1951 2546 72223 11211 3843736934 4497 0.000000 0.000000
30 1.604004 30.0 1756 2259 72278 11953 3843736970 4015 0.000000 0.000000
31 1.658935 30.0 1645 2218 72243 12234 3843737007 3863 0.000000 0.000000
32 1.735840 30.0 1367 2628 72472 12216 3843737043 3995 0.000000 0.000000
