# ps_pos exposure_time(s) O-Beam H-Beam Monitor AUX-Beam time(s) O+H+AUX encod1 encod2
1 0.197754 30.0 1668 5968 72722 5065 3843737088 7636 0.000000 0.000000
2 0.252686 30.0 2022 5474 72430 6011 3843737124 7496 0.000000 0.000000
3 0.318603 30.0 2030 4742 72766 6961 3843737160 6772 0.000000 0.000000
4 0.373535 30.0 2291 3809 73267 8589 3843737197 6100 0.000000 0.000000
5 0.450439 30.0 2226 3138 72544 9822 3843737233 5364 0.000000 0.000000
6 0.516357 30.0 1929 2510 72185 11283 3843737269 4439 0.000000 0.000000
7 0.582275 30.0 1805 2165 72763 12217 3843737306 3970 0.000000 0.000000
8 0.648193 30.0 1558 2142 72931 12633 3843737342 3700 0.000000 0.000000
9 0.703125 30.0 1312 2586 72725 12256 3843737379 3898 0.000000 0.000000
10 0.758057 30.0 1119 3168 73248 11383 3843737415 4287 0.000000 0.000000
11 0.812988 30.0 981 3889 72827 10377 3843737451 4870 0.000000 0.000000
12 0.889893 30.0 862 4610 72540 9160 3843737488 5472 0.000000 0.000000
13 0.944824 30.0 980 5305 72865 7750 3843737524 6285 0.000000 0.000000
14 1.010742 30.0 1118 5967 72457 6371 3843737561 7085 0.000000 0.000000
15 1.098633 30.0 1228 6223 72674 5420 3843737597 7451 0.000000 0.000000
16 1.164551 30.0 1577 6256 72981 4970 3843737633 7833 0.000000 0.000000
17 1.241455 30.0 1761 5734 72948 5156 3843737670 7495 0.000000 0.000000
18 1.285400 30.0 1864 5479 73009 5862 3843737706 7343 0.000000 0.000000
19 1.362305 30.0 1786 4966 72678 7341 3843737742 6752 0.000000 0.000000
20 1.428223 30.0 1774 3844 72104 8943 3843737779 5618 0.000000 0.000000
21 1.494141 30.0 1731 3080 72692 10223 3843737815 4811 0.000000 0.000000
22 1.560059 30.0 1742 2556 72497 11622 3843737851 4298 0.000000 0.000000
23 1.636963 30.0 1580 2273 72632 12320 3843737888 3853 0.000000 0.000000
24 1.691895 30.0 1466 2247 72513 12288 3843737924 3713 0.000000 0.000000
25 1.768799 30.0 1387 2600 72597 12062 3843737961 3987 0.000000 0.000000
26 1.823730 30.0 1182 3300 73169 11124 3843737997 4482 0.000000 0.000000
27 1.889648 30.0 1047 4105 73022 9590 3843738034 5152 0.000000 0.000000
28 1.955566 30.0 1111 5059 72491 8050 3843738070 6170 0.000000 0.000000
29 2.032471 30.0 1153 5778 72749 6463 3843738107 6931 0.000000 0.000000
30 2.098389 30.0 1198 6234 72607 5474 3843738143 7432 0.000000 0.000000
31 2.175293 30.0 1271 6519 72367 4900 3843738179 7790 0.000000 0.000000
32 2.241211 30.0 1513 6072 72436 5121 3843738216 7585 0.000000 0.000000
