# ps_pos exposure_time(s) O-Beam H-Beam Monitor AUX-Beam time(s) O+H+AUX encod1 encod2
1 -1.274414 30.0 3902 2326 72264 8291 3843983778 6228 0.000000 0.000000
2 -1.197510 30.0 4172 1968 73379 8414 3843983813 6140 0.000000 0.000000
3 -1.153565 30.0 4379 1844 73425 8286 3843983848 6223 0.000000 0.000000
4 -1.076660 30.0 4117 2000 73324 8374 3843983883 6117 0.000000 0.000000
5 -1.010742 30.0 3588 2574 73364 8364 3843983918 6162 0.000000 0.000000
6 -0.944824 30.0 3046 3010 73207 8349 3843983954 6056 0.000000 0.000000
7 -0.900879 30.0 2491 3446 73344 8437 3843983989 5937 0.000000 0.000000
8 -0.834961 30.0 1851 4022 73281 8466 3843984024 5873 0.000000 0.000000
9 -0.769043 30.0 1264 4528 73162 8482 3843984059 5792 0.000000 0.000000
10 -0.703125 30.0 983 4806 73938 8239 3843984094 5789 0.000000 0.000000
11 -0.626221 30.0 820 4809 73410 8264 3843984130 5629 0.000000 0.000000
12 -0.560303 30.0 1044 4738 73301 8327 3843984165 5782 0.000000 0.000000
13 -0.494385 30.0 1515 4344 73144 8504 3843984200 5859 0.000000 0.000000
14 -0.417480 30.0 2157 3859 73933 8400 3843984235 6016 0.000000 0.000000
15 -0.373535 30.0 2724 3278 73681 8334 3843984270 6002 0.000000 0.000000
16 -0.307617 30.0 3450 2569 73017 8452 3843984306 6019 0.000000 0.000000
17 -0.230713 30.0 4009 2146 73528 8397 3843984341 6155 0.000000 0.000000
18 -0.175781 30.0 4370 1811 73297 8529 3843984376 6181 0.000000 0.000000
19 -0.098877 30.0 4387 1853 73259 8526 3843984411 6240 0.000000 0.000000
20 -0.043945 30.0 3988 2142 73388 8325 3843984447 6130 0.000000 0.000000
21 0.054932 30.0 3448 2588 73119 8340 3843984482 6036 0.000000 0.000000
22 0.109863 30.0 2929 3140 73680 8417 3843984517 6069 0.000000 0.000000
23 0.186768 30.0 2020 3846 73605 8355 3843984552 5866 0.000000 0.000000
24 0.241699 30.0 1440 4385 73367 8444 3843984587 5825 0.000000 0.000000
25 0.318603 30.0 985 4605 72874 8486 3843984623 5590 0.000000 0.000000
26 0.384522 30.0 880 4954 73374 8316 3843984658 5834 0.000000 0.000000
27 0.450439 30.0 1079 4740 73402 8260 3843984693 5819 0.000000 0.000000
28 0.527344 30.0 1321 4385 73307 8288 3843984728 5706 0.000000 0.000000
29 0.582275 30.0 1799 4097 73832 8315 3843984763 5896 0.000000 0.000000
30 0.648193 30.0 2453 3406 72767 8410 3843984799 5859 0.000000 0.000000
31 0.703125 30.0 3130 2891 73080 8477 3843984834 6021 0.000000 0.000000
32 0.769043 30.0 3747 2408 72880 8210 3843984869 6155 0.000000 0.000000
33 0.845947 30.0 4203 1930 73581 8462 3843984904 6133 0.000000 0.000000
34 0.911865 30.0 4324 1814 73302 8391 3843984939 6138 0.000000 0.000000
35 0.966797 30.0 4158 1965 73447 8372 3843984975 6123 0.000000 0.000000
36 1.032715 30.0 3770 2279 73128 8491 3843985010 6049 0.000000 0.000000
37 1.098633 30.0 3243 2889 72735 8350 3843985045 6132 0.000000 0.000000
38 1.175537 30.0 2430 3387 72760 8280 3843985080 5817 0.000000 0.000000
39 1.241455 30.0 1731 4101 73148 8415 3843985115 5832 0.000000 0.000000
40 1.296387 30.0 1314 4589 73021 8406 3843985151 5903 0.000000 0.000000
41 1.362305 30.0 927 4720 73429 8405 3843985186 5647 0.000000 0.000000
42 1.428223 30.0 796 4857 73181 8361 3843985221 5653 0.000000 0.000000
43 1.505127 30.0 973 4727 73126 8399 3843985256 5700 0.000000 0.000000
44 1.582031 30.0 1425 4426 73445 8428 3843985292 5851 0.000000 0.000000
45 1.647949 30.0 2153 3648 73846 8228 3843985327 5801 0.000000 0.000000
46 1.702881 30.0 2733 3169 73275 8519 3843985362 5902 0.000000 0.000000
47 1.768799 30.0 3382 2610 73313 8323 3843985397 5992 0.000000 0.000000
48 1.834717 30.0 3922 2094 73207 8278 3843985432 6016 0.000000 0.000000
