# ps_pos exposure_time(s) O-Beam H-Beam Monitor AUX-Beam time(s) O+H+AUX encod1 encod2
1 -0.197754 30.0 6350 2197 71821 4939 3843319050 8547 0.000000 0.000000
2 -0.120850 30.0 6112 2157 71707 5122 3843319087 8269 0.000000 0.000000
3 -0.065918 30.0 5509 2198 71206 5947 3843319123 7707 0.000000 0.000000
4 -0.010986 30.0 4642 2287 71541 7380 3843319159 6929 0.000000 0.000000
5 0.054932 30.0 3805 2339 71324 8617 3843319195 6144 0.000000 0.000000
6 0.142822 30.0 2694 2260 70855 10303 3843319231 4954 0.000000 0.000000
7 0.208740 30.0 1905 2262 70802 11494 3843319268 4167 0.000000 0.000000
8 0.274658 30.0 1537 2272 71735 12288 3843319304 3809 0.000000 0.000000
9 0.329590 30.0 1431 2280 71913 12656 3843319340 3711 0.000000 0.000000
10 0.395508 30.0 1689 2261 71414 12245 3843319376 3950 0.000000 0.000000
11 0.472412 30.0 2398 2107 71612 11192 3843319412 4505 0.000000 0.000000
12 0.527344 30.0 3291 1991 71159 9892 3843319449 5282 0.000000 0.000000
13 0.593262 30.0 4178 1995 71315 8508 3843319485 6173 0.000000 0.000000
14 0.670166 30.0 5147 2018 71868 6960 3843319521 7165 0.000000 0.000000
15 0.725098 30.0 5870 2070 71223 5608 3843319557 7940 0.000000 0.000000
16 0.791016 30.0 6233 2074 71413 5097 3843319593 8307 0.000000 0.000000
17 0.856934 30.0 6283 2216 71551 4905 3843319630 8499 0.000000 0.000000
18 0.922852 30.0 5892 2281 71332 5327 3843319666 8173 0.000000 0.000000
19 0.977783 30.0 5237 2392 71670 6282 3843319702 7629 0.000000 0.000000
20 1.043701 30.0 4505 2405 71257 7613 3843319738 6910 0.000000 0.000000
21 1.098633 30.0 3421 2375 71547 9153 3843319774 5796 0.000000 0.000000
22 1.175537 30.0 2581 2396 71553 10235 3843319811 4977 0.000000 0.000000
23 1.230469 30.0 2029 2425 71412 11385 3843319847 4454 0.000000 0.000000
24 1.296387 30.0 1571 2381 71525 12205 3843319883 3952 0.000000 0.000000
25 1.351318 30.0 1376 2325 71838 12359 3843319919 3701 0.000000 0.000000
26 1.417236 30.0 1698 2303 71015 12140 3843319955 4001 0.000000 0.000000
27 1.494141 30.0 2305 2195 71536 11235 3843319992 4500 0.000000 0.000000
28 1.560059 30.0 3158 2274 71515 9736 3843320028 5432 0.000000 0.000000
29 1.625977 30.0 4086 2158 71338 8431 3843320064 6244 0.000000 0.000000
30 1.713867 30.0 5103 2156 71570 6886 3843320100 7259 0.000000 0.000000
