# ps_pos exposure_time(s) O-Beam H-Beam Monitor AUX-Beam time(s) O+H+AUX encod1 encod2
1 -0.461426 30.0 3395 2381 71161 9194 3843320145 5776 0.000000 0.000000
2 -0.406494 30.0 4561 2267 71470 7656 3843320181 6828 0.000000 0.000000
3 -0.340576 30.0 5411 2234 71584 6218 3843320217 7645 0.000000 0.000000
4 -0.274658 30.0 6019 2136 71654 5200 3843320253 8155 0.000000 0.000000
5 -0.208740 30.0 6146 2146 71523 4916 3843320289 8292 0.000000 0.000000
6 -0.142822 30.0 6118 2183 71450 5007 3843320326 8301 0.000000 0.000000
7 -0.076904 30.0 5345 2255 71677 5993 3843320362 7600 0.000000 0.000000
8 0.000000 30.0 4681 2159 71201 7162 3843320398 6840 0.000000 0.000000
9 0.065918 30.0 3728 2329 71342 8596 3843320434 6057 0.000000 0.000000
10 0.131836 30.0 2774 2286 71089 10201 3843320470 5060 0.000000 0.000000
11 0.208740 30.0 1902 2331 71719 11478 3843320507 4233 0.000000 0.000000
12 0.274658 30.0 1499 2405 71293 12070 3843320543 3904 0.000000 0.000000
13 0.329590 30.0 1375 2315 71234 12656 3843320579 3690 0.000000 0.000000
14 0.417480 30.0 1639 2346 71379 11966 3843320615 3985 0.000000 0.000000
15 0.461426 30.0 2410 2141 71143 11101 3843320651 4551 0.000000 0.000000
16 0.527344 30.0 3373 2116 71824 9749 3843320688 5489 0.000000 0.000000
17 0.593262 30.0 3986 2165 71471 8397 3843320724 6151 0.000000 0.000000
18 0.659180 30.0 5080 2211 72069 6934 3843320760 7291 0.000000 0.000000
19 0.736084 30.0 5794 2113 71196 5586 3843320796 7907 0.000000 0.000000
20 0.802002 30.0 6122 2182 71707 4880 3843320833 8304 0.000000 0.000000
21 0.867920 30.0 6256 2149 71183 4906 3843320869 8405 0.000000 0.000000
22 0.933838 30.0 5926 2156 71356 5388 3843320905 8082 0.000000 0.000000
23 0.999756 30.0 5200 2172 71939 6427 3843320941 7372 0.000000 0.000000
24 1.054688 30.0 4219 2170 71386 7836 3843320977 6389 0.000000 0.000000
25 1.142578 30.0 3286 2247 71829 9687 3843321014 5533 0.000000 0.000000
26 1.208496 30.0 2443 2067 71491 10783 3843321050 4510 0.000000 0.000000
27 1.263428 30.0 1895 2148 71707 11998 3843321086 4043 0.000000 0.000000
28 1.329346 30.0 1469 2359 71452 12431 3843321122 3828 0.000000 0.000000
29 1.395264 30.0 1410 2368 71748 12178 3843321159 3778 0.000000 0.000000
30 1.461182 30.0 1654 2337 71430 11811 3843321195 3991 0.000000 0.000000
