# ps_pos exposure_time(s) O-Beam H-Beam Monitor AUX-Beam time(s) O+H+AUX encod1 encod2
1 -0.285645 30.0 3832 2202 73442 9097 3843788405 6034 0.000000 0.000000
2 -0.219727 30.0 4240 1894 73138 8988 3843788441 6134 0.000000 0.000000
3 -0.142822 30.0 4218 1940 72796 9066 3843788476 6158 0.000000 0.000000
4 -0.087891 30.0 4008 2193 73418 9247 3843788511 6201 0.000000 0.000000
5 -0.010986 30.0 3778 2458 73104 8940 3843788547 6236 0.000000 0.000000
6 0.054932 30.0 3194 2911 72031 8887 3843788582 6105 0.000000 0.000000
7 0.131836 30.0 2344 3586 72982 9005 3843788617 5930 0.000000 0.000000
8 0.186768 30.0 1843 4046 72958 8981 3843788653 5889 0.000000 0.000000
9 0.230713 30.0 1300 4432 72900 9104 3843788688 5732 0.000000 0.000000
10 0.307617 30.0 897 4684 73002 9081 3843788723 5581 0.000000 0.000000
11 0.373535 30.0 968 4723 72876 9139 3843788758 5691 0.000000 0.000000
12 0.472412 30.0 1244 4500 72818 9120 3843788794 5744 0.000000 0.000000
13 0.538330 30.0 1862 4016 72705 9172 3843788829 5878 0.000000 0.000000
14 0.604248 30.0 2267 3526 72785 8986 3843788864 5793 0.000000 0.000000
15 0.670166 30.0 3012 2945 72745 9173 3843788900 5957 0.000000 0.000000
16 0.725098 30.0 3629 2475 73234 9011 3843788935 6104 0.000000 0.000000
17 0.780029 30.0 3817 2121 72875 9319 3843788970 5938 0.000000 0.000000
18 0.845947 30.0 4160 1923 72203 8927 3843789006 6083 0.000000 0.000000
19 0.900879 30.0 4208 1871 73089 9229 3843789041 6079 0.000000 0.000000
20 0.966797 30.0 3687 2115 73093 9309 3843789076 5802 0.000000 0.000000
21 1.032715 30.0 3383 2526 72545 9142 3843789112 5909 0.000000 0.000000
22 1.098633 30.0 2755 3214 72542 9103 3843789147 5969 0.000000 0.000000
23 1.164551 30.0 2085 3738 72722 9139 3843789182 5823 0.000000 0.000000
24 1.241455 30.0 1591 4248 72500 9253 3843789218 5839 0.000000 0.000000
25 1.296387 30.0 1114 4518 73681 9142 3843789253 5632 0.000000 0.000000
26 1.373291 30.0 983 4598 72735 9131 3843789288 5581 0.000000 0.000000
27 1.428223 30.0 1000 4778 72813 9327 3843789323 5778 0.000000 0.000000
28 1.494141 30.0 1287 4380 72835 9299 3843789359 5667 0.000000 0.000000
29 1.549072 30.0 1663 4000 72696 9480 3843789394 5663 0.000000 0.000000
30 1.625977 30.0 2289 3552 72511 9067 3843789429 5841 0.000000 0.000000
31 1.680908 30.0 2855 2960 73217 9242 3843789465 5815 0.000000 0.000000
32 1.757812 30.0 3570 2389 73110 9289 3843789500 5959 0.000000 0.000000
