# ps_pos exposure_time(s) O-Beam H-Beam Monitor AUX-Beam time(s) O+H+AUX encod1 encod2
1 0.406494 30.0 1053 4531 71512 8510 3843531959 5584 0.000000 0.000000
2 0.483398 30.0 1043 3776 71869 10296 3843531995 4819 0.000000 0.000000
3 0.549316 30.0 1220 2981 72327 11551 3843532031 4201 0.000000 0.000000
4 0.615234 30.0 1374 2552 71489 12017 3843532068 3926 0.000000 0.000000
5 0.670166 30.0 1585 2247 71971 12367 3843532104 3832 0.000000 0.000000
6 0.736084 30.0 1835 2198 71948 11780 3843532140 4033 0.000000 0.000000
7 0.823975 30.0 2189 2681 71439 10657 3843532176 4870 0.000000 0.000000
8 0.889893 30.0 2264 3160 71872 9257 3843532212 5424 0.000000 0.000000
9 0.955811 30.0 2117 4149 71342 7935 3843532249 6266 0.000000 0.000000
10 1.021729 30.0 2014 4988 72008 6360 3843532285 7002 0.000000 0.000000
11 1.087646 30.0 1737 5756 71944 5515 3843532321 7493 0.000000 0.000000
12 1.153565 30.0 1432 6262 71662 4784 3843532357 7694 0.000000 0.000000
13 1.219482 30.0 1349 6307 71635 5006 3843532393 7656 0.000000 0.000000
14 1.307373 30.0 1186 6193 71725 5852 3843532430 7379 0.000000 0.000000
15 1.351318 30.0 1186 5438 72195 6978 3843532466 6624 0.000000 0.000000
16 1.417236 30.0 979 4742 71506 8457 3843532502 5721 0.000000 0.000000
17 1.472168 30.0 1036 3852 71784 10021 3843532538 4888 0.000000 0.000000
18 1.560059 30.0 1235 3092 71625 11242 3843532574 4327 0.000000 0.000000
19 1.604004 30.0 1530 2525 71771 11686 3843532611 4055 0.000000 0.000000
20 1.669922 30.0 1458 2280 71771 12470 3843532647 3738 0.000000 0.000000
21 1.757812 30.0 1679 2273 71928 12405 3843532683 3952 0.000000 0.000000
22 1.801758 30.0 1771 2476 71287 11457 3843532719 4247 0.000000 0.000000
23 1.878662 30.0 1903 3009 71689 10150 3843532755 4912 0.000000 0.000000
24 1.944580 30.0 2031 3827 72471 8511 3843532792 5858 0.000000 0.000000
25 2.032471 30.0 2153 4755 71832 6906 3843532828 6908 0.000000 0.000000
26 2.098389 30.0 1966 5338 71395 5475 3843532864 7304 0.000000 0.000000
27 2.153320 30.0 1770 5964 71468 4894 3843532900 7734 0.000000 0.000000
28 2.219238 30.0 1541 6090 71852 4812 3843532936 7631 0.000000 0.000000
29 2.296143 30.0 1143 6188 71727 5470 3843532973 7331 0.000000 0.000000
30 2.351074 30.0 989 5824 71752 6371 3843533009 6813 0.000000 0.000000
31 2.416992 30.0 914 5116 71962 7715 3843533045 6030 0.000000 0.000000
32 2.493896 30.0 841 4384 71645 9286 3843533081 5225 0.000000 0.000000
