# ps_pos exposure_time(s) O-Beam H-Beam Monitor AUX-Beam time(s) O+H+AUX encod1 encod2
1 0.933838 30.0 2808 3174 72568 8329 3843534292 5982 0.000000 0.000000
2 0.988769 30.0 2872 3990 71419 6924 3843534328 6862 0.000000 0.000000
3 1.065674 30.0 2743 4673 71918 5712 3843534364 7416 0.000000 0.000000
4 1.120605 30.0 2425 5352 71691 5082 3843534400 7777 0.000000 0.000000
5 1.186523 30.0 1939 5874 71531 4933 3843534437 7813 0.000000 0.000000
6 1.252441 30.0 1510 6322 72189 5018 3843534473 7832 0.000000 0.000000
7 1.307373 30.0 1272 5755 71789 5999 3843534509 7027 0.000000 0.000000
8 1.406250 30.0 964 5217 71492 7579 3843534545 6181 0.000000 0.000000
9 1.450195 30.0 772 4714 71446 8910 3843534581 5486 0.000000 0.000000
10 1.516113 30.0 789 3869 71988 10424 3843534618 4658 0.000000 0.000000
11 1.593018 30.0 926 3032 71484 11700 3843534654 3958 0.000000 0.000000
12 1.647949 30.0 1205 2499 71747 12235 3843534690 3704 0.000000 0.000000
13 1.724854 30.0 1677 2022 71833 12241 3843534726 3699 0.000000 0.000000
14 1.801758 30.0 2175 1995 72075 11729 3843534762 4170 0.000000 0.000000
15 1.867676 30.0 2681 2236 71558 10395 3843534799 4917 0.000000 0.000000
16 1.944580 30.0 3014 2649 71811 8810 3843534835 5663 0.000000 0.000000
17 1.999512 30.0 3152 3443 72042 7179 3843534871 6595 0.000000 0.000000
18 2.087402 30.0 3335 4164 72152 5811 3843534907 7499 0.000000 0.000000
19 2.153320 30.0 3102 4676 71562 5004 3843534943 7778 0.000000 0.000000
20 2.208252 30.0 2985 5016 71745 4752 3843534980 8001 0.000000 0.000000
21 2.296143 30.0 2476 5164 72149 5324 3843535016 7640 0.000000 0.000000
22 2.351074 30.0 1848 5062 71678 6390 3843535052 6910 0.000000 0.000000
23 2.427979 30.0 1403 4781 71457 7652 3843535088 6184 0.000000 0.000000
24 2.515869 30.0 979 4190 71635 9440 3843535125 5169 0.000000 0.000000
25 2.570801 30.0 834 3536 71683 10765 3843535161 4370 0.000000 0.000000
26 2.647705 30.0 889 2974 72363 11933 3843535197 3863 0.000000 0.000000
27 2.713623 30.0 1277 2383 71223 12332 3843535233 3660 0.000000 0.000000
28 2.779541 30.0 1883 1996 71558 12198 3843535269 3879 0.000000 0.000000
29 2.845459 30.0 2524 1781 71926 11276 3843535306 4305 0.000000 0.000000
30 2.911377 30.0 3206 2023 71652 10053 3843535342 5229 0.000000 0.000000
31 2.977295 30.0 3637 2279 71674 8525 3843535378 5916 0.000000 0.000000
32 3.054199 30.0 4025 2680 71521 7049 3843535414 6705 0.000000 0.000000
