# ps_pos exposure_time(s) O-Beam H-Beam Monitor AUX-Beam time(s) O+H+AUX encod1 encod2
1 -1.779785 30.0 1281 6543 73679 5105 3844015148 7824 0.000000 0.000000
2 -1.702881 30.0 1387 6358 73697 4991 3844015183 7745 0.000000 0.000000
3 -1.636963 30.0 2021 5811 73724 5120 3844015218 7832 0.000000 0.000000
4 -1.593018 30.0 2806 5184 73565 5186 3844015254 7990 0.000000 0.000000
5 -1.516113 30.0 3502 4546 73234 4924 3844015289 8048 0.000000 0.000000
6 -1.450195 30.0 4641 3640 73679 4953 3844015324 8281 0.000000 0.000000
7 -1.395264 30.0 5461 2979 73215 5171 3844015359 8440 0.000000 0.000000
8 -1.340332 30.0 6069 2489 74147 5020 3844015394 8558 0.000000 0.000000
9 -1.274414 30.0 6127 2312 73349 5095 3844015430 8439 0.000000 0.000000
10 -1.208496 30.0 6117 2425 73887 5069 3844015465 8542 0.000000 0.000000
11 -1.142578 30.0 5611 2705 73798 4995 3844015500 8316 0.000000 0.000000
12 -1.076660 30.0 4735 3310 73318 4994 3844015535 8045 0.000000 0.000000
13 -1.021729 30.0 3929 4322 73366 4962 3844015570 8251 0.000000 0.000000
14 -0.955811 30.0 2834 5092 73450 5033 3844015606 7926 0.000000 0.000000
15 -0.878906 30.0 2005 5865 73702 4918 3844015641 7870 0.000000 0.000000
16 -0.823975 30.0 1452 6565 73382 4981 3844015676 8017 0.000000 0.000000
17 -0.758057 30.0 1303 6649 73015 4983 3844015711 7952 0.000000 0.000000
18 -0.692139 30.0 1371 6407 73999 4981 3844015746 7778 0.000000 0.000000
19 -0.615234 30.0 2059 5776 73826 4959 3844015782 7835 0.000000 0.000000
20 -0.571289 30.0 2606 5452 73968 5134 3844015817 8058 0.000000 0.000000
21 -0.505371 30.0 3793 4448 74495 4983 3844015852 8241 0.000000 0.000000
22 -0.428467 30.0 4633 3599 73383 5121 3844015887 8232 0.000000 0.000000
23 -0.362549 30.0 5367 2860 73880 5007 3844015922 8227 0.000000 0.000000
24 -0.285645 30.0 5837 2442 73488 4930 3844015958 8279 0.000000 0.000000
25 -0.241699 30.0 6194 2227 73648 4927 3844015993 8421 0.000000 0.000000
26 -0.164795 30.0 5935 2494 73940 4903 3844016028 8429 0.000000 0.000000
27 -0.098877 30.0 5431 2982 73694 5054 3844016063 8413 0.000000 0.000000
28 -0.032959 30.0 4454 3719 74020 4953 3844016098 8173 0.000000 0.000000
29 0.032959 30.0 3700 4392 73891 4875 3844016133 8092 0.000000 0.000000
30 0.087891 30.0 2847 5220 73867 5057 3844016169 8067 0.000000 0.000000
31 0.164795 30.0 1937 5969 73722 5107 3844016204 7906 0.000000 0.000000
32 0.219727 30.0 1410 6303 73968 5048 3844016239 7713 0.000000 0.000000
33 0.274658 30.0 1163 6651 73978 5037 3844016274 7814 0.000000 0.000000
34 0.340576 30.0 1337 6351 73860 4952 3844016309 7688 0.000000 0.000000
35 0.406494 30.0 1856 6119 73553 4984 3844016345 7975 0.000000 0.000000
36 0.472412 30.0 2623 5271 73115 5041 3844016380 7894 0.000000 0.000000
37 0.538330 30.0 3359 4747 73638 5010 3844016415 8106 0.000000 0.000000
38 0.604248 30.0 4480 3782 73279 5024 3844016450 8262 0.000000 0.000000
39 0.670166 30.0 5325 2984 73425 5029 3844016485 8309 0.000000 0.000000
40 0.736084 30.0 6023 2320 73570 5078 3844016521 8343 0.000000 0.000000
41 0.823975 30.0 6114 2187 73648 5073 3844016556 8301 0.000000 0.000000
42 0.878906 30.0 6000 2415 73073 5114 3844016591 8415 0.000000 0.000000
43 0.933838 30.0 5353 3039 74319 5056 3844016627 8392 0.000000 0.000000
44 0.988769 30.0 4724 3596 73956 5065 3844016662 8320 0.000000 0.000000
45 1.065674 30.0 3784 4540 73595 4816 3844016697 8324 0.000000 0.000000
46 1.131592 30.0 2701 5113 73791 4981 3844016732 7814 0.000000 0.000000
47 1.186523 30.0 1946 5863 73859 4977 3844016767 7809 0.000000 0.000000
48 1.263428 30.0 1365 6379 73520 4891 3844016802 7744 0.000000 0.000000
