# ps_pos exposure_time(s) O-Beam H-Beam Monitor AUX-Beam time(s) O+H+AUX encod1 encod2
1 -0.406494 15.0 823 1138 36436 6458 3843710483 1961 0.000000 0.000000
2 -0.340576 15.0 1011 1041 36452 6169 3843710505 2052 0.000000 0.000000
3 -0.274658 15.0 1197 1055 35978 5940 3843710526 2252 0.000000 0.000000
4 -0.230713 15.0 1392 1269 36443 5114 3843710547 2661 0.000000 0.000000
5 -0.153809 15.0 1401 1559 36060 4413 3843710568 2960 0.000000 0.000000
6 -0.109863 15.0 1424 1903 36650 3828 3843710590 3327 0.000000 0.000000
7 -0.054932 15.0 1375 2331 36096 3212 3843710611 3706 0.000000 0.000000
8 0.021973 15.0 1274 2745 36127 2865 3843710632 4019 0.000000 0.000000
9 0.098877 15.0 1159 2853 36128 2576 3843710653 4012 0.000000 0.000000
10 0.164795 15.0 959 3035 36465 2685 3843710674 3994 0.000000 0.000000
11 0.241699 15.0 701 3047 36176 3093 3843710696 3748 0.000000 0.000000
12 0.296631 15.0 584 2793 36301 3624 3843710717 3377 0.000000 0.000000
13 0.373535 15.0 480 2334 36223 4391 3843710738 2814 0.000000 0.000000
14 0.428467 15.0 446 2160 36340 5191 3843710759 2606 0.000000 0.000000
15 0.516357 15.0 519 1636 36153 5754 3843710780 2155 0.000000 0.000000
16 0.560303 15.0 584 1417 36210 6048 3843710802 2001 0.000000 0.000000
17 0.626221 15.0 783 1149 36176 6410 3843710823 1932 0.000000 0.000000
18 0.703125 15.0 1018 1086 36420 6103 3843710844 2104 0.000000 0.000000
19 0.758057 15.0 1203 1050 36334 5674 3843710865 2253 0.000000 0.000000
20 0.845947 15.0 1429 1446 36708 5000 3843710886 2875 0.000000 0.000000
21 0.900879 15.0 1477 1643 36239 4123 3843710908 3120 0.000000 0.000000
22 0.977783 15.0 1406 2142 36721 3311 3843710929 3548 0.000000 0.000000
23 1.043701 15.0 1353 2482 36333 2972 3843710950 3835 0.000000 0.000000
24 1.098633 15.0 1070 2957 36271 2591 3843710971 4027 0.000000 0.000000
25 1.164551 15.0 875 3136 36116 2603 3843710992 4011 0.000000 0.000000
26 1.230469 15.0 738 3043 36410 2703 3843711014 3781 0.000000 0.000000
27 1.296387 15.0 588 2923 36333 3303 3843711035 3511 0.000000 0.000000
28 1.351318 15.0 473 2667 36061 3890 3843711056 3140 0.000000 0.000000
29 1.417236 15.0 465 2365 36276 4661 3843711077 2830 0.000000 0.000000
30 1.483154 15.0 481 1955 36587 5412 3843711099 2436 0.000000 0.000000
31 1.538086 15.0 542 1506 36551 6005 3843711120 2048 0.000000 0.000000
32 1.604004 15.0 672 1292 36000 6308 3843711141 1964 0.000000 0.000000
