# ps_pos exposure_time(s) O-Beam H-Beam Monitor AUX-Beam time(s) O+H+AUX encod1 encod2
1 -0.175781 15.0 1697 1250 36597 4688 3843711857 2947 0.000000 0.000000
2 -0.120850 15.0 1974 1440 36330 3999 3843711878 3414 0.000000 0.000000
3 -0.043945 15.0 2013 1691 36036 3311 3843711899 3704 0.000000 0.000000
4 0.010986 15.0 1901 2079 36489 2793 3843711920 3980 0.000000 0.000000
5 0.065918 15.0 1779 2360 36229 2627 3843711941 4139 0.000000 0.000000
6 0.120850 15.0 1521 2592 36276 2560 3843711963 4113 0.000000 0.000000
7 0.208740 15.0 1189 2601 36428 2881 3843711984 3790 0.000000 0.000000
8 0.263672 15.0 814 2741 36620 3297 3843712005 3555 0.000000 0.000000
9 0.318603 15.0 626 2500 36541 3978 3843712026 3126 0.000000 0.000000
10 0.384522 15.0 542 2382 36356 4684 3843712047 2924 0.000000 0.000000
11 0.428467 15.0 421 2036 36419 5291 3843712069 2457 0.000000 0.000000
12 0.505371 15.0 460 1755 36349 5553 3843712090 2215 0.000000 0.000000
13 0.571289 15.0 587 1397 36250 6340 3843712111 1984 0.000000 0.000000
14 0.637207 15.0 851 1143 36222 6405 3843712132 1994 0.000000 0.000000
15 0.703125 15.0 1090 1061 36516 6052 3843712153 2151 0.000000 0.000000
16 0.758057 15.0 1367 1067 36650 5714 3843712175 2434 0.000000 0.000000
17 0.823975 15.0 1601 1232 36695 4982 3843712196 2833 0.000000 0.000000
18 0.889893 15.0 1737 1494 36542 4389 3843712217 3231 0.000000 0.000000
19 0.966797 15.0 1690 1919 36397 3519 3843712238 3609 0.000000 0.000000
20 1.043701 15.0 1747 2178 36419 2786 3843712260 3925 0.000000 0.000000
21 1.098633 15.0 1485 2462 36497 2520 3843712281 3947 0.000000 0.000000
22 1.175537 15.0 1306 2668 36285 2506 3843712302 3974 0.000000 0.000000
23 1.230469 15.0 1079 2846 36263 2874 3843712323 3925 0.000000 0.000000
24 1.307373 15.0 796 2777 36268 3324 3843712344 3573 0.000000 0.000000
25 1.362305 15.0 571 2630 35980 4070 3843712366 3201 0.000000 0.000000
26 1.439209 15.0 531 2288 36018 4925 3843712387 2819 0.000000 0.000000
27 1.494141 15.0 461 1827 36047 5465 3843712408 2288 0.000000 0.000000
28 1.560059 15.0 567 1529 36551 6146 3843712429 2096 0.000000 0.000000
29 1.636963 15.0 720 1202 36303 6330 3843712450 1922 0.000000 0.000000
30 1.691895 15.0 910 1064 36281 6398 3843712472 1974 0.000000 0.000000
31 1.757812 15.0 1190 1094 36340 6044 3843712493 2284 0.000000 0.000000
32 1.823730 15.0 1395 1223 36135 5338 3843712514 2618 0.000000 0.000000
