# ps_pos exposure_time(s) O-Beam H-Beam Monitor AUX-Beam time(s) O+H+AUX encod1 encod2
1 -1.098633 20.0 1294 1526 49942 3700 3844134314 2820 0.000000 0.000000
2 -1.043701 20.0 1520 1332 49634 3799 3844134410 2852 0.000000 0.000000
3 -0.988769 20.0 1673 1200 50266 3778 3844134562 2873 0.000000 0.000000
4 -0.922852 20.0 1778 977 49605 3782 3844134658 2755 0.000000 0.000000
5 -0.867920 20.0 1832 1021 50092 3699 3844134811 2853 0.000000 0.000000
6 -0.812988 20.0 1716 1059 49897 3785 3844134906 2775 0.000000 0.000000
7 -0.736084 20.0 1550 1284 50200 3735 3844135059 2834 0.000000 0.000000
8 -0.681152 20.0 1200 1530 50040 3749 3844135154 2730 0.000000 0.000000
9 -0.626221 20.0 1122 1655 50082 3704 3844135307 2777 0.000000 0.000000
10 -0.560303 20.0 892 1886 49947 3757 3844135403 2778 0.000000 0.000000
11 -0.483398 20.0 630 2126 50178 3798 3844135555 2756 0.000000 0.000000
12 -0.417480 20.0 470 2204 49780 3769 3844135651 2674 0.000000 0.000000
13 -0.351562 20.0 516 2115 50196 3672 3844135803 2631 0.000000 0.000000
14 -0.285645 20.0 659 2085 49783 3708 3844135899 2744 0.000000 0.000000
15 -0.208740 20.0 887 1789 50094 3785 3844136051 2676 0.000000 0.000000
16 -0.131836 20.0 1043 1736 49588 3730 3844136147 2779 0.000000 0.000000
17 -0.076904 20.0 1363 1467 49767 3739 3844136299 2830 0.000000 0.000000
18 -0.010986 20.0 1456 1316 50114 3725 3844136395 2772 0.000000 0.000000
19 0.065918 20.0 1707 1053 49779 3689 3844136547 2760 0.000000 0.000000
20 0.120850 20.0 1756 1068 50168 3745 3844136643 2824 0.000000 0.000000
21 0.186768 20.0 1852 1070 50244 3744 3844136795 2922 0.000000 0.000000
22 0.252686 20.0 1741 1157 50339 3856 3844136891 2898 0.000000 0.000000
23 0.340576 20.0 1445 1312 49583 3698 3844137043 2757 0.000000 0.000000
24 0.406494 20.0 1151 1614 49738 3875 3844137139 2765 0.000000 0.000000
25 0.472412 20.0 825 1904 49687 3720 3844137291 2729 0.000000 0.000000
26 0.538330 20.0 668 2113 49920 3658 3844137387 2781 0.000000 0.000000
27 0.615234 20.0 518 2228 49834 3708 3844137540 2746 0.000000 0.000000
28 0.670166 20.0 479 2252 49782 3671 3844137635 2731 0.000000 0.000000
29 0.747070 20.0 508 2162 49694 3683 3844137788 2670 0.000000 0.000000
30 0.812988 20.0 768 1972 50235 3741 3844137884 2740 0.000000 0.000000
31 0.878906 20.0 994 1795 50070 3713 3844138036 2789 0.000000 0.000000
32 0.933838 20.0 1186 1613 49568 3652 3844138132 2799 0.000000 0.000000
