# ps_pos exposure_time(s) O-Beam H-Beam Monitor AUX-Beam time(s) O+H+AUX encod1 encod2
1 -1.604004 20.0 1732 1756 49702 3699 3844106650 3488 0.000000 0.000000
2 -1.538086 20.0 1740 1727 49804 3746 3844106870 3467 0.000000 0.000000
3 -1.483154 20.0 1742 1720 49992 3717 3844106898 3462 0.000000 0.000000
4 -1.406250 20.0 1713 1810 49846 3700 3844107118 3523 0.000000 0.000000
5 -1.351318 20.0 1777 1748 49757 3843 3844107146 3525 0.000000 0.000000
6 -1.296387 20.0 1724 1784 49622 3647 3844107366 3508 0.000000 0.000000
7 -1.230469 20.0 1781 1733 49228 3776 3844107394 3514 0.000000 0.000000
8 -1.153565 20.0 1687 1699 49810 3619 3844107614 3386 0.000000 0.000000
9 -1.098633 20.0 1668 1771 49666 3665 3844107642 3439 0.000000 0.000000
10 -1.021729 20.0 1671 1777 49857 3766 3844107862 3448 0.000000 0.000000
11 -0.966797 20.0 1726 1749 50175 3670 3844107890 3475 0.000000 0.000000
12 -0.889893 20.0 1821 1785 50101 3719 3844108110 3606 0.000000 0.000000
13 -0.812988 20.0 1752 1738 50231 3710 3844108138 3490 0.000000 0.000000
14 -0.758057 20.0 1833 1729 49885 3575 3844108358 3562 0.000000 0.000000
15 -0.703125 20.0 1720 1729 49476 3723 3844108386 3449 0.000000 0.000000
16 -0.648193 20.0 1685 1757 49940 3716 3844108606 3442 0.000000 0.000000
17 -0.571289 20.0 1799 1710 49997 3701 3844108634 3509 0.000000 0.000000
18 -0.505371 20.0 1794 1759 49958 3613 3844108854 3553 0.000000 0.000000
19 -0.439453 20.0 1788 1784 49684 3650 3844108882 3572 0.000000 0.000000
20 -0.373535 20.0 1798 1848 49732 3648 3844109102 3646 0.000000 0.000000
21 -0.318603 20.0 1710 1746 50114 3646 3844109130 3456 0.000000 0.000000
22 -0.252686 20.0 1795 1646 49388 3691 3844109350 3441 0.000000 0.000000
23 -0.197754 20.0 1745 1715 49976 3844 3844109378 3460 0.000000 0.000000
24 -0.131836 20.0 1770 1780 49636 3635 3844109598 3550 0.000000 0.000000
25 -0.054932 20.0 1787 1746 49677 3604 3844109626 3533 0.000000 0.000000
26 0.010986 20.0 1637 1766 49821 3624 3844109846 3403 0.000000 0.000000
27 0.076904 20.0 1663 1788 49645 3725 3844109874 3451 0.000000 0.000000
28 0.142822 20.0 1678 1755 49786 3586 3844110094 3433 0.000000 0.000000
29 0.219727 20.0 1779 1720 50041 3759 3844110122 3499 0.000000 0.000000
30 0.274658 20.0 1717 1711 49181 3639 3844110342 3428 0.000000 0.000000
31 0.329590 20.0 1770 1721 50017 3781 3844110370 3491 0.000000 0.000000
32 0.406494 20.0 1682 1695 50040 3580 3844110590 3377 0.000000 0.000000
