# ps_pos exposure_time(s) O-Beam H-Beam Monitor AUX-Beam time(s) O+H+AUX encod1 encod2
1 -1.604004 20.0 1132 1621 48936 1998 3844048632 2753 0.000000 0.000000
2 -1.549072 20.0 786 1924 48609 1980 3844048661 2710 0.000000 0.000000
3 -1.472168 20.0 606 2184 49233 1979 3844048882 2790 0.000000 0.000000
4 -1.406250 20.0 320 2378 49352 1933 3844048911 2698 0.000000 0.000000
5 -1.340332 20.0 325 2367 48972 2032 3844049132 2692 0.000000 0.000000
6 -1.274414 20.0 366 2271 49115 2036 3844049161 2637 0.000000 0.000000
7 -1.208496 20.0 549 2123 49273 2098 3844049382 2672 0.000000 0.000000
8 -1.142578 20.0 867 1960 49072 2022 3844049411 2827 0.000000 0.000000
9 -1.087646 20.0 1222 1563 48913 1997 3844049632 2785 0.000000 0.000000
10 -1.021729 20.0 1466 1372 49125 2036 3844049661 2838 0.000000 0.000000
11 -0.966797 20.0 1826 1204 49291 2080 3844049882 3030 0.000000 0.000000
12 -0.900879 20.0 1801 1052 49424 2122 3844049912 2853 0.000000 0.000000
13 -0.834961 20.0 1901 946 49446 1990 3844050132 2847 0.000000 0.000000
14 -0.769043 20.0 1875 996 48846 1981 3844050162 2871 0.000000 0.000000
15 -0.714111 20.0 1578 1190 49220 2045 3844050382 2768 0.000000 0.000000
16 -0.637207 20.0 1254 1501 49236 1934 3844050412 2755 0.000000 0.000000
17 -0.571289 20.0 1022 1756 49166 1971 3844050632 2778 0.000000 0.000000
18 -0.516357 20.0 775 1937 49351 2054 3844050662 2712 0.000000 0.000000
19 -0.450439 20.0 518 2267 49283 2008 3844050883 2785 0.000000 0.000000
20 -0.384522 20.0 329 2272 49303 2085 3844050912 2601 0.000000 0.000000
21 -0.318603 20.0 326 2361 48594 1917 3844051133 2687 0.000000 0.000000
22 -0.241699 20.0 332 2425 49188 1997 3844051162 2757 0.000000 0.000000
23 -0.186768 20.0 513 2125 49804 2027 3844051383 2638 0.000000 0.000000
24 -0.120850 20.0 860 1958 49306 1971 3844051412 2818 0.000000 0.000000
25 -0.054932 20.0 1049 1742 49163 1936 3844051633 2791 0.000000 0.000000
26 0.021973 20.0 1447 1350 49288 2076 3844051662 2797 0.000000 0.000000
27 0.076904 20.0 1615 1237 49563 2048 3844051883 2852 0.000000 0.000000
28 0.153809 20.0 1819 1137 49409 2008 3844051912 2956 0.000000 0.000000
29 0.208740 20.0 1935 953 49590 1983 3844052133 2888 0.000000 0.000000
30 0.285645 20.0 1833 977 49610 2051 3844052162 2810 0.000000 0.000000
31 0.351562 20.0 1646 1128 49042 2021 3844052383 2774 0.000000 0.000000
32 0.417480 20.0 1361 1414 49424 1988 3844052412 2775 0.000000 0.000000
