# ps_pos exposure_time(s) O-Beam H-Beam Monitor AUX-Beam time(s) O+H+AUX encod1 encod2
1 -1.208496 20.0 1878 946 50501 1940 3844115693 2824 0.000000 0.000000
2 -1.142578 20.0 1814 997 49502 1947 3844115721 2811 0.000000 0.000000
3 -1.076660 20.0 1841 947 49586 1922 3844115941 2788 0.000000 0.000000
4 -1.010742 20.0 1805 976 49825 1864 3844115969 2781 0.000000 0.000000
5 -0.944824 20.0 1780 954 50125 1937 3844116189 2734 0.000000 0.000000
6 -0.867920 20.0 1843 959 50220 1848 3844116217 2802 0.000000 0.000000
7 -0.812988 20.0 1810 887 50063 1899 3844116437 2697 0.000000 0.000000
8 -0.747070 20.0 1837 1003 50217 1938 3844116465 2840 0.000000 0.000000
9 -0.681152 20.0 1848 945 49646 1886 3844116685 2793 0.000000 0.000000
10 -0.593262 20.0 1883 923 49836 1910 3844116713 2806 0.000000 0.000000
11 -0.538330 20.0 1848 942 49486 1891 3844116933 2790 0.000000 0.000000
12 -0.472412 20.0 1747 994 49742 1966 3844116961 2741 0.000000 0.000000
13 -0.406494 20.0 1918 992 49830 1930 3844117181 2910 0.000000 0.000000
14 -0.351562 20.0 1927 933 49713 1957 3844117209 2860 0.000000 0.000000
15 -0.274658 20.0 1804 952 49798 1976 3844117429 2756 0.000000 0.000000
16 -0.219727 20.0 1791 981 49613 1891 3844117457 2772 0.000000 0.000000
17 -0.153809 20.0 1786 881 49740 1887 3844117677 2667 0.000000 0.000000
18 -0.098877 20.0 1921 953 50278 1929 3844117705 2874 0.000000 0.000000
19 -0.021973 20.0 1839 954 49798 1918 3844117925 2793 0.000000 0.000000
20 0.032959 20.0 1748 1018 49914 2008 3844117953 2766 0.000000 0.000000
21 0.098877 20.0 1875 1008 49929 1935 3844118173 2883 0.000000 0.000000
22 0.164795 20.0 1818 952 49696 1898 3844118201 2770 0.000000 0.000000
23 0.230713 20.0 1885 987 49833 1900 3844118421 2872 0.000000 0.000000
24 0.296631 20.0 1865 954 49685 1893 3844118450 2819 0.000000 0.000000
25 0.340576 20.0 1825 921 50172 1926 3844118669 2746 0.000000 0.000000
26 0.417480 20.0 1794 973 49766 1881 3844118698 2767 0.000000 0.000000
27 0.483398 20.0 1821 996 50458 1910 3844118917 2817 0.000000 0.000000
28 0.571289 20.0 1814 941 49901 1922 3844118946 2755 0.000000 0.000000
29 0.637207 20.0 1736 923 49884 1946 3844119166 2659 0.000000 0.000000
30 0.692139 20.0 1803 971 49518 1960 3844119194 2774 0.000000 0.000000
31 0.769043 20.0 1726 950 49963 2000 3844119414 2676 0.000000 0.000000
32 0.823975 20.0 1806 980 49876 1914 3844119442 2786 0.000000 0.000000
