# ps_pos exposure_time(s) O-Beam H-Beam Monitor AUX-Beam time(s) O+H+AUX encod1 encod2
1 -1.604004 20.0 389 2224 49362 1878 3844106746 2613 0.000000 0.000000
2 -1.538086 20.0 524 2193 49548 1831 3844106774 2717 0.000000 0.000000
3 -1.483154 20.0 658 2124 49683 1876 3844106994 2782 0.000000 0.000000
4 -1.406250 20.0 883 1860 49559 1865 3844107022 2743 0.000000 0.000000
5 -1.351318 20.0 1316 1607 49927 1961 3844107242 2923 0.000000 0.000000
6 -1.296387 20.0 1488 1252 49630 1904 3844107270 2740 0.000000 0.000000
7 -1.230469 20.0 1735 1057 50130 1872 3844107490 2792 0.000000 0.000000
8 -1.153565 20.0 1896 999 49462 1834 3844107518 2895 0.000000 0.000000
9 -1.098633 20.0 1907 910 49668 1915 3844107738 2817 0.000000 0.000000
10 -1.021729 20.0 1733 1035 49645 1947 3844107766 2768 0.000000 0.000000
11 -0.966797 20.0 1654 1221 49558 1954 3844107986 2875 0.000000 0.000000
12 -0.889893 20.0 1320 1486 49400 1901 3844108014 2806 0.000000 0.000000
13 -0.812988 20.0 956 1779 49493 1906 3844108234 2735 0.000000 0.000000
14 -0.758057 20.0 711 1987 49715 1879 3844108262 2698 0.000000 0.000000
15 -0.703125 20.0 463 2153 49816 1936 3844108482 2616 0.000000 0.000000
16 -0.648193 20.0 361 2230 49912 1851 3844108510 2591 0.000000 0.000000
17 -0.571289 20.0 333 2181 49905 1883 3844108730 2514 0.000000 0.000000
18 -0.505371 20.0 489 2073 50113 1859 3844108758 2562 0.000000 0.000000
19 -0.439453 20.0 690 1965 49890 1950 3844108978 2655 0.000000 0.000000
20 -0.373535 20.0 963 1737 49542 1936 3844109006 2700 0.000000 0.000000
21 -0.318603 20.0 1398 1455 49578 1890 3844109226 2853 0.000000 0.000000
22 -0.252686 20.0 1553 1262 49870 1892 3844109254 2815 0.000000 0.000000
23 -0.197754 20.0 1811 1085 49680 1941 3844109474 2896 0.000000 0.000000
24 -0.131836 20.0 1945 987 49673 1897 3844109502 2932 0.000000 0.000000
25 -0.054932 20.0 1920 1003 49862 1901 3844109722 2923 0.000000 0.000000
26 0.010986 20.0 1708 1042 49675 1907 3844109750 2750 0.000000 0.000000
27 0.076904 20.0 1584 1285 49639 1913 3844109970 2869 0.000000 0.000000
28 0.142822 20.0 1288 1444 49682 1921 3844109998 2732 0.000000 0.000000
29 0.219727 20.0 882 1772 49920 1888 3844110218 2654 0.000000 0.000000
30 0.274658 20.0 762 1932 49593 1832 3844110246 2694 0.000000 0.000000
31 0.329590 20.0 474 2224 49830 1910 3844110466 2698 0.000000 0.000000
32 0.406494 20.0 365 2339 49778 1848 3844110494 2704 0.000000 0.000000
