# ps_pos exposure_time(s) O-Beam H-Beam Monitor AUX-Beam time(s) O+H+AUX encod1 encod2
1 -1.098633 20.0 1164 1165 49904 5605 3844134252 2329 0.000000 0.000000
2 -1.043701 20.0 1147 1151 49376 5663 3844134472 2298 0.000000 0.000000
3 -0.988769 20.0 1160 1151 49912 5582 3844134500 2311 0.000000 0.000000
4 -0.922852 20.0 1131 1189 50228 5628 3844134720 2320 0.000000 0.000000
5 -0.867920 20.0 1167 1203 49889 5388 3844134749 2370 0.000000 0.000000
6 -0.812988 20.0 1138 1181 50045 5656 3844134968 2319 0.000000 0.000000
7 -0.736084 20.0 1182 1188 50302 5527 3844134997 2370 0.000000 0.000000
8 -0.681152 20.0 1115 1188 49782 5502 3844135216 2303 0.000000 0.000000
9 -0.626221 20.0 1142 1150 50069 5567 3844135245 2292 0.000000 0.000000
10 -0.560303 20.0 1178 1247 49819 5567 3844135465 2425 0.000000 0.000000
11 -0.483398 20.0 1133 1161 50279 5497 3844135493 2294 0.000000 0.000000
12 -0.417480 20.0 1064 1177 50094 5554 3844135713 2241 0.000000 0.000000
13 -0.351562 20.0 1153 1152 49561 5535 3844135741 2305 0.000000 0.000000
14 -0.285645 20.0 1133 1245 50281 5382 3844135961 2378 0.000000 0.000000
15 -0.208740 20.0 1125 1193 49963 5591 3844135989 2318 0.000000 0.000000
16 -0.131836 20.0 1142 1184 50222 5543 3844136209 2326 0.000000 0.000000
17 -0.076904 20.0 1165 1242 50192 5512 3844136237 2407 0.000000 0.000000
18 -0.010986 20.0 1152 1175 50412 5525 3844136457 2327 0.000000 0.000000
19 0.065918 20.0 1054 1174 49961 5548 3844136485 2228 0.000000 0.000000
20 0.120850 20.0 1101 1165 50044 5541 3844136705 2266 0.000000 0.000000
21 0.186768 20.0 1149 1162 49916 5498 3844136733 2311 0.000000 0.000000
22 0.252686 20.0 1158 1240 50428 5477 3844136953 2398 0.000000 0.000000
23 0.340576 20.0 1063 1153 50313 5494 3844136981 2216 0.000000 0.000000
24 0.406494 20.0 1127 1122 49772 5317 3844137201 2249 0.000000 0.000000
25 0.472412 20.0 1130 1131 49785 5543 3844137229 2261 0.000000 0.000000
26 0.538330 20.0 1099 1083 49786 5466 3844137449 2182 0.000000 0.000000
27 0.615234 20.0 1139 1188 50138 5572 3844137478 2327 0.000000 0.000000
28 0.670166 20.0 1135 1190 49796 5482 3844137697 2325 0.000000 0.000000
29 0.747070 20.0 1157 1135 49934 5476 3844137726 2292 0.000000 0.000000
30 0.812988 20.0 1138 1128 49823 5605 3844137946 2266 0.000000 0.000000
31 0.878906 20.0 1158 1135 50049 5563 3844137974 2293 0.000000 0.000000
32 0.933838 20.0 1108 1156 49680 5456 3844138194 2264 0.000000 0.000000
