# ps_pos exposure_time(s) O-Beam H-Beam Monitor AUX-Beam time(s) O+H+AUX encod1 encod2
1 -1.604004 20.0 536 2262 49613 3726 3844106712 2798 0.000000 0.000000
2 -1.538086 20.0 584 2202 49233 3969 3844106808 2786 0.000000 0.000000
3 -1.483154 20.0 737 1986 50044 3917 3844106960 2723 0.000000 0.000000
4 -1.406250 20.0 974 1776 49487 3875 3844107056 2750 0.000000 0.000000
5 -1.351318 20.0 1236 1503 49841 3889 3844107208 2739 0.000000 0.000000
6 -1.296387 20.0 1380 1367 49265 3821 3844107304 2747 0.000000 0.000000
7 -1.230469 20.0 1541 1225 49499 3912 3844107456 2766 0.000000 0.000000
8 -1.153565 20.0 1801 1090 49797 3859 3844107552 2891 0.000000 0.000000
9 -1.098633 20.0 1810 957 49657 3916 3844107704 2767 0.000000 0.000000
10 -1.021729 20.0 1720 1186 49705 3937 3844107800 2906 0.000000 0.000000
11 -0.966797 20.0 1481 1307 49660 3848 3844107952 2788 0.000000 0.000000
12 -0.889893 20.0 1310 1563 50188 3897 3844108048 2873 0.000000 0.000000
13 -0.812988 20.0 1127 1697 49770 3793 3844108200 2824 0.000000 0.000000
14 -0.758057 20.0 896 1803 49835 3768 3844108296 2699 0.000000 0.000000
15 -0.703125 20.0 643 2077 49633 3894 3844108448 2720 0.000000 0.000000
16 -0.648193 20.0 559 2234 49766 4026 3844108544 2793 0.000000 0.000000
17 -0.571289 20.0 496 2228 50179 3868 3844108696 2724 0.000000 0.000000
18 -0.505371 20.0 543 2208 50036 3829 3844108792 2751 0.000000 0.000000
19 -0.439453 20.0 779 1932 49778 3872 3844108944 2711 0.000000 0.000000
20 -0.373535 20.0 1021 1830 49734 3892 3844109040 2851 0.000000 0.000000
21 -0.318603 20.0 1336 1537 50047 3823 3844109192 2873 0.000000 0.000000
22 -0.252686 20.0 1482 1410 49991 3818 3844109288 2892 0.000000 0.000000
23 -0.197754 20.0 1749 1130 49875 3906 3844109440 2879 0.000000 0.000000
24 -0.131836 20.0 1864 987 49767 3816 3844109536 2851 0.000000 0.000000
25 -0.054932 20.0 1783 1081 49666 3812 3844109688 2864 0.000000 0.000000
26 0.010986 20.0 1752 1129 49635 3799 3844109784 2881 0.000000 0.000000
27 0.076904 20.0 1460 1317 50332 3681 3844109936 2777 0.000000 0.000000
28 0.142822 20.0 1345 1559 50105 3884 3844110032 2904 0.000000 0.000000
29 0.219727 20.0 1121 1783 49516 3753 3844110184 2904 0.000000 0.000000
30 0.274658 20.0 915 1843 49746 3789 3844110280 2758 0.000000 0.000000
31 0.329590 20.0 744 2002 49833 3815 3844110432 2746 0.000000 0.000000
32 0.406494 20.0 527 2281 49557 3766 3844110528 2808 0.000000 0.000000
