# ps_pos exposure_time(s) O-Beam H-Beam Monitor AUX-Beam time(s) O+H+AUX encod1 encod2
1 -1.889648 20.0 478 2163 49688 3441 3844124882 2641 0.000000 0.000000
2 -1.834717 20.0 541 2154 49991 3505 3844124979 2695 0.000000 0.000000
3 -1.757812 20.0 483 2183 50037 3410 3844125132 2666 0.000000 0.000000
4 -1.691895 20.0 480 2064 49959 3464 3844125229 2544 0.000000 0.000000
5 -1.625977 20.0 526 2050 50032 3440 3844125382 2576 0.000000 0.000000
6 -1.560059 20.0 510 2104 49743 3466 3844125479 2614 0.000000 0.000000
7 -1.494141 20.0 533 2125 49477 3387 3844125632 2658 0.000000 0.000000
8 -1.428223 20.0 461 2167 49988 3396 3844125729 2628 0.000000 0.000000
9 -1.351318 20.0 533 2043 49981 3481 3844125882 2576 0.000000 0.000000
10 -1.274414 20.0 470 2220 49997 3482 3844125979 2690 0.000000 0.000000
11 -1.230469 20.0 514 2117 50234 3401 3844126132 2631 0.000000 0.000000
12 -1.164551 20.0 546 2152 49713 3534 3844126229 2698 0.000000 0.000000
13 -1.087646 20.0 540 2107 49977 3383 3844126382 2647 0.000000 0.000000
14 -1.021729 20.0 521 2214 49924 3510 3844126479 2735 0.000000 0.000000
15 -0.944824 20.0 485 2131 49471 3419 3844126632 2616 0.000000 0.000000
16 -0.900879 20.0 496 2153 49608 3423 3844126729 2649 0.000000 0.000000
17 -0.823975 20.0 511 2129 49869 3439 3844126882 2640 0.000000 0.000000
18 -0.758057 20.0 537 2078 49701 3375 3844126979 2615 0.000000 0.000000
19 -0.692139 20.0 510 2131 50032 3293 3844127132 2641 0.000000 0.000000
20 -0.626221 20.0 539 2091 49799 3415 3844127229 2630 0.000000 0.000000
21 -0.549316 20.0 510 2096 49657 3406 3844127382 2606 0.000000 0.000000
22 -0.483398 20.0 544 2042 50014 3358 3844127479 2586 0.000000 0.000000
23 -0.428467 20.0 591 2041 49720 3254 3844127632 2632 0.000000 0.000000
24 -0.362549 20.0 529 2227 49582 3277 3844127729 2756 0.000000 0.000000
25 -0.285645 20.0 576 2013 50369 3347 3844127882 2589 0.000000 0.000000
26 -0.208740 20.0 616 1957 49954 3315 3844127979 2573 0.000000 0.000000
27 -0.142822 20.0 530 2089 50064 3348 3844128132 2619 0.000000 0.000000
28 -0.087891 20.0 641 1982 49857 3304 3844128229 2623 0.000000 0.000000
29 -0.010986 20.0 464 2111 49702 3249 3844128383 2575 0.000000 0.000000
30 0.054932 20.0 560 2072 49883 3356 3844128479 2632 0.000000 0.000000
31 0.131836 20.0 731 1995 49505 3336 3844128633 2726 0.000000 0.000000
32 0.175781 20.0 560 2116 50339 3401 3844128729 2676 0.000000 0.000000
