# ps_pos exposure_time(s) O-Beam H-Beam Monitor AUX-Beam time(s) O+H+AUX encod1 encod2
1 -1.900635 20.0 1589 1235 49960 1939 3844101980 2824 0.000000 0.000000
2 -1.834717 20.0 1564 1246 49932 1859 3844102008 2810 0.000000 0.000000
3 -1.768799 20.0 1589 1263 50047 1916 3844102228 2852 0.000000 0.000000
4 -1.713867 20.0 1497 1196 50339 1841 3844102256 2693 0.000000 0.000000
5 -1.636963 20.0 1547 1122 51608 1910 3844102476 2669 0.000000 0.000000
6 -1.582031 20.0 1618 1186 51320 1882 3844102505 2804 0.000000 0.000000
7 -1.505127 20.0 1470 1249 51206 1886 3844102725 2719 0.000000 0.000000
8 -1.450195 20.0 1564 1202 51424 1873 3844102753 2766 0.000000 0.000000
9 -1.373291 20.0 1612 1176 51399 1906 3844102973 2788 0.000000 0.000000
10 -1.307373 20.0 1679 1123 50863 1884 3844103001 2802 0.000000 0.000000
11 -1.252441 20.0 1555 1253 51238 1877 3844103221 2808 0.000000 0.000000
12 -1.175537 20.0 1567 1269 50830 1927 3844103249 2836 0.000000 0.000000
13 -1.109619 20.0 1567 1177 49953 1894 3844103469 2744 0.000000 0.000000
14 -1.054688 20.0 1689 1191 50301 1955 3844103497 2880 0.000000 0.000000
15 -0.977783 20.0 1488 1237 50187 1944 3844103717 2725 0.000000 0.000000
16 -0.911865 20.0 1498 1219 50165 1920 3844103745 2717 0.000000 0.000000
17 -0.856934 20.0 1601 1128 51521 1943 3844103965 2729 0.000000 0.000000
18 -0.791016 20.0 1718 1137 51366 1887 3844103993 2855 0.000000 0.000000
19 -0.725098 20.0 1521 1214 50308 1908 3844104213 2735 0.000000 0.000000
20 -0.670166 20.0 1649 1277 50842 1893 3844104241 2926 0.000000 0.000000
21 -0.604248 20.0 1519 1179 51592 1972 3844104461 2698 0.000000 0.000000
22 -0.538330 20.0 1508 1205 51594 1885 3844104489 2713 0.000000 0.000000
23 -0.461426 20.0 1563 1209 52054 1906 3844104709 2772 0.000000 0.000000
24 -0.395508 20.0 1662 1186 51913 1856 3844104737 2848 0.000000 0.000000
25 -0.329590 20.0 1554 1195 49807 1856 3844104957 2749 0.000000 0.000000
26 -0.274658 20.0 1553 1184 50391 1899 3844104986 2737 0.000000 0.000000
27 -0.197754 20.0 1494 1180 49715 2025 3844105205 2674 0.000000 0.000000
28 -0.131836 20.0 1479 1171 49615 1938 3844105234 2650 0.000000 0.000000
29 -0.076904 20.0 1568 1166 49754 1965 3844105453 2734 0.000000 0.000000
30 -0.021973 20.0 1520 1219 49385 1864 3844105481 2739 0.000000 0.000000
31 0.054932 20.0 1555 1156 49585 1884 3844105701 2711 0.000000 0.000000
32 0.098877 20.0 1523 1260 49664 1915 3844105729 2783 0.000000 0.000000
