# ps_pos exposure_time(s) O-Beam H-Beam Monitor AUX-Beam time(s) O+H+AUX encod1 encod2
1 -1.208496 20.0 1410 1418 49126 4681 3844062800 2828 0.000000 0.000000
2 -1.142578 20.0 1093 1044 49783 5507 3844063021 2137 0.000000 0.000000
3 -1.087646 20.0 857 882 49469 6197 3844063050 1739 0.000000 0.000000
4 -1.010742 20.0 600 638 49010 6945 3844063271 1238 0.000000 0.000000
5 -0.944824 20.0 438 509 49884 7724 3844063300 947 0.000000 0.000000
6 -0.878906 20.0 397 406 49327 7947 3844063521 803 0.000000 0.000000
7 -0.812988 20.0 426 471 49536 7666 3844063550 897 0.000000 0.000000
8 -0.747070 20.0 519 528 49305 7183 3844063771 1047 0.000000 0.000000
9 -0.681152 20.0 750 785 49296 6576 3844063800 1535 0.000000 0.000000
10 -0.626221 20.0 1091 1060 49659 5538 3844064021 2151 0.000000 0.000000
11 -0.560303 20.0 1320 1332 49010 4596 3844064050 2652 0.000000 0.000000
12 -0.472412 20.0 1639 1526 49387 3742 3844064271 3165 0.000000 0.000000
13 -0.428467 20.0 1762 1653 49177 3371 3844064300 3415 0.000000 0.000000
14 -0.351562 20.0 1829 1646 49392 3043 3844064521 3475 0.000000 0.000000
15 -0.296631 20.0 1703 1670 49359 3333 3844064550 3373 0.000000 0.000000
16 -0.230713 20.0 1621 1443 49214 3825 3844064771 3064 0.000000 0.000000
17 -0.153809 20.0 1429 1252 49206 4593 3844064800 2681 0.000000 0.000000
18 -0.087891 20.0 1118 980 49659 5370 3844065021 2098 0.000000 0.000000
19 -0.021973 20.0 810 780 49219 6289 3844065050 1590 0.000000 0.000000
20 0.043945 20.0 588 599 49061 6993 3844065271 1187 0.000000 0.000000
21 0.109863 20.0 422 440 49338 7577 3844065301 862 0.000000 0.000000
22 0.175781 20.0 374 394 49736 7728 3844065522 768 0.000000 0.000000
23 0.252686 20.0 457 509 49276 7484 3844065551 966 0.000000 0.000000
24 0.307617 20.0 608 577 49282 7257 3844065772 1185 0.000000 0.000000
25 0.362549 20.0 663 730 49357 6308 3844065801 1393 0.000000 0.000000
26 0.428467 20.0 1001 977 49619 5603 3844066022 1978 0.000000 0.000000
27 0.494385 20.0 1243 1133 49203 4723 3844066051 2376 0.000000 0.000000
28 0.560303 20.0 1523 1367 49565 3753 3844066272 2890 0.000000 0.000000
29 0.604248 20.0 1711 1462 49295 3254 3844066301 3173 0.000000 0.000000
30 0.681152 20.0 1894 1605 49605 2975 3844066522 3499 0.000000 0.000000
31 0.747070 20.0 1788 1573 49559 3035 3844066551 3361 0.000000 0.000000
32 0.823975 20.0 1550 1351 49346 3648 3844066772 2901 0.000000 0.000000
