# ps_pos exposure_time(s) O-Beam H-Beam Monitor AUX-Beam time(s) O+H+AUX encod1 encod2
1 -1.966553 20.0 785 850 48982 6722 3844058159 1635 0.000000 0.000000
2 -1.922607 20.0 869 903 49318 6755 3844058379 1772 0.000000 0.000000
3 -1.856690 20.0 897 981 49221 6624 3844058407 1878 0.000000 0.000000
4 -1.779785 20.0 896 922 49239 6614 3844058627 1818 0.000000 0.000000
5 -1.724854 20.0 875 909 49102 6445 3844058655 1784 0.000000 0.000000
6 -1.658935 20.0 851 932 49251 6595 3844058875 1783 0.000000 0.000000
7 -1.593018 20.0 933 923 48805 6501 3844058903 1856 0.000000 0.000000
8 -1.527100 20.0 862 991 49709 6597 3844059123 1853 0.000000 0.000000
9 -1.472168 20.0 971 954 49294 6266 3844059151 1925 0.000000 0.000000
10 -1.395264 20.0 934 1018 49068 6235 3844059371 1952 0.000000 0.000000
11 -1.340332 20.0 962 967 49615 6284 3844059400 1929 0.000000 0.000000
12 -1.274414 20.0 920 995 49583 6365 3844059619 1915 0.000000 0.000000
13 -1.219482 20.0 927 954 49320 6247 3844059647 1881 0.000000 0.000000
14 -1.153565 20.0 932 968 48810 6199 3844059868 1900 0.000000 0.000000
15 -1.098633 20.0 959 1040 49301 6285 3844059896 1999 0.000000 0.000000
16 -1.021729 20.0 964 1012 49231 6156 3844060115 1976 0.000000 0.000000
17 -0.944824 20.0 905 989 49193 6112 3844060143 1894 0.000000 0.000000
18 -0.889893 20.0 1001 966 49039 6060 3844060363 1967 0.000000 0.000000
19 -0.845947 20.0 998 968 49194 6178 3844060391 1966 0.000000 0.000000
20 -0.780029 20.0 977 951 49213 6136 3844060611 1928 0.000000 0.000000
21 -0.714111 20.0 999 990 49263 6041 3844060640 1989 0.000000 0.000000
22 -0.648193 20.0 976 991 49460 5898 3844060859 1967 0.000000 0.000000
23 -0.593262 20.0 998 1009 48990 6056 3844060888 2007 0.000000 0.000000
24 -0.527344 20.0 1016 1021 49461 6120 3844061108 2037 0.000000 0.000000
25 -0.461426 20.0 1008 954 49598 5992 3844061136 1962 0.000000 0.000000
26 -0.406494 20.0 995 994 49372 5973 3844061355 1989 0.000000 0.000000
27 -0.340576 20.0 940 984 49306 5934 3844061384 1924 0.000000 0.000000
28 -0.285645 20.0 1015 1022 49566 6027 3844061604 2037 0.000000 0.000000
29 -0.208740 20.0 1034 990 49577 5962 3844061632 2024 0.000000 0.000000
30 -0.153809 20.0 1008 1037 49557 5977 3844061852 2045 0.000000 0.000000
31 -0.076904 20.0 962 981 49534 6081 3844061880 1943 0.000000 0.000000
32 0.000000 20.0 978 1015 49065 5908 3844062100 1993 0.000000 0.000000
