# ps_pos exposure_time(s) O-Beam H-Beam Monitor AUX-Beam time(s) O+H+AUX encod1 encod2
1 -1.604004 20.0 1071 1093 49367 5699 3844048536 2164 0.000000 0.000000
2 -1.549072 20.0 1421 1422 49082 4710 3844048757 2843 0.000000 0.000000
3 -1.472168 20.0 1666 1583 49262 4046 3844048786 3249 0.000000 0.000000
4 -1.406250 20.0 1788 1760 48947 3414 3844049007 3548 0.000000 0.000000
5 -1.340332 20.0 1838 1830 49431 3371 3844049036 3668 0.000000 0.000000
6 -1.274414 20.0 1804 1725 48960 3578 3844049257 3529 0.000000 0.000000
7 -1.208496 20.0 1725 1549 49169 3981 3844049286 3274 0.000000 0.000000
8 -1.142578 20.0 1480 1318 49261 4859 3844049507 2798 0.000000 0.000000
9 -1.087646 20.0 1138 1144 49322 5706 3844049536 2282 0.000000 0.000000
10 -1.021729 20.0 910 852 49053 6494 3844049757 1762 0.000000 0.000000
11 -0.966797 20.0 692 696 49120 7236 3844049786 1388 0.000000 0.000000
12 -0.900879 20.0 516 523 49431 7833 3844050008 1039 0.000000 0.000000
13 -0.834961 20.0 434 481 49015 7962 3844050037 915 0.000000 0.000000
14 -0.769043 20.0 418 472 49071 7920 3844050257 890 0.000000 0.000000
15 -0.714111 20.0 541 587 49039 7534 3844050287 1128 0.000000 0.000000
16 -0.637207 20.0 815 797 49604 6710 3844050508 1612 0.000000 0.000000
17 -0.571289 20.0 1104 1060 49615 5680 3844050537 2164 0.000000 0.000000
18 -0.516357 20.0 1343 1383 48867 4934 3844050758 2726 0.000000 0.000000
19 -0.450439 20.0 1610 1558 49083 4205 3844050787 3168 0.000000 0.000000
20 -0.384522 20.0 1803 1726 49333 3570 3844051008 3529 0.000000 0.000000
21 -0.318603 20.0 1844 1818 49153 3262 3844051037 3662 0.000000 0.000000
22 -0.241699 20.0 1853 1718 49150 3272 3844051258 3571 0.000000 0.000000
23 -0.186768 20.0 1696 1669 48748 3685 3844051287 3365 0.000000 0.000000
24 -0.120850 20.0 1529 1361 49382 4622 3844051508 2890 0.000000 0.000000
25 -0.054932 20.0 1218 1191 49355 5411 3844051537 2409 0.000000 0.000000
26 0.021973 20.0 1032 905 49403 6508 3844051758 1937 0.000000 0.000000
27 0.076904 20.0 710 683 49109 7206 3844051787 1393 0.000000 0.000000
28 0.153809 20.0 498 512 49355 7672 3844052008 1010 0.000000 0.000000
29 0.208740 20.0 387 426 49306 8181 3844052037 813 0.000000 0.000000
30 0.285645 20.0 434 451 48969 7907 3844052258 885 0.000000 0.000000
31 0.351562 20.0 586 631 49034 7613 3844052287 1217 0.000000 0.000000
32 0.417480 20.0 842 842 49603 6581 3844052508 1684 0.000000 0.000000
