# ps_pos exposure_time(s) O-Beam H-Beam Monitor AUX-Beam time(s) O+H+AUX encod1 encod2
1 -1.098633 20.0 1831 918 49634 1869 3844134348 2749 0.000000 0.000000
2 -1.043701 20.0 1747 1017 49470 1966 3844134376 2764 0.000000 0.000000
3 -0.988769 20.0 1598 1146 50182 1839 3844134596 2744 0.000000 0.000000
4 -0.922852 20.0 1421 1389 49956 1985 3844134624 2810 0.000000 0.000000
5 -0.867920 20.0 1034 1657 49716 1996 3844134844 2691 0.000000 0.000000
6 -0.812988 20.0 836 1788 49722 1942 3844134873 2624 0.000000 0.000000
7 -0.736084 20.0 585 2098 49903 1902 3844135092 2683 0.000000 0.000000
8 -0.681152 20.0 348 2263 49746 1912 3844135121 2611 0.000000 0.000000
9 -0.626221 20.0 334 2308 49733 1962 3844135341 2642 0.000000 0.000000
10 -0.560303 20.0 361 2252 50118 1901 3844135369 2613 0.000000 0.000000
11 -0.483398 20.0 545 2095 49641 1973 3844135589 2640 0.000000 0.000000
12 -0.417480 20.0 753 1956 49667 1908 3844135617 2709 0.000000 0.000000
13 -0.351562 20.0 1261 1521 49730 1999 3844135837 2782 0.000000 0.000000
14 -0.285645 20.0 1460 1302 50228 1831 3844135865 2762 0.000000 0.000000
15 -0.208740 20.0 1721 1046 49693 1913 3844136085 2767 0.000000 0.000000
16 -0.131836 20.0 1948 995 49947 1833 3844136113 2943 0.000000 0.000000
17 -0.076904 20.0 1925 933 49573 1939 3844136333 2858 0.000000 0.000000
18 -0.010986 20.0 1804 1070 49806 1923 3844136361 2874 0.000000 0.000000
19 0.065918 20.0 1560 1284 50054 1980 3844136581 2844 0.000000 0.000000
20 0.120850 20.0 1333 1419 49671 1952 3844136609 2752 0.000000 0.000000
21 0.186768 20.0 1028 1749 50347 1851 3844136829 2777 0.000000 0.000000
22 0.252686 20.0 738 1947 50531 1860 3844136857 2685 0.000000 0.000000
23 0.340576 20.0 477 2173 49426 1880 3844137077 2650 0.000000 0.000000
24 0.406494 20.0 304 2294 49887 1949 3844137105 2598 0.000000 0.000000
25 0.472412 20.0 400 2227 49957 1909 3844137325 2627 0.000000 0.000000
26 0.538330 20.0 520 2126 49716 1807 3844137354 2646 0.000000 0.000000
27 0.615234 20.0 700 1919 50360 1903 3844137574 2619 0.000000 0.000000
28 0.670166 20.0 1009 1653 49952 1904 3844137602 2662 0.000000 0.000000
29 0.747070 20.0 1403 1373 49983 1928 3844137822 2776 0.000000 0.000000
30 0.812988 20.0 1613 1172 49766 1915 3844137850 2785 0.000000 0.000000
31 0.878906 20.0 1838 979 49832 1898 3844138070 2817 0.000000 0.000000
32 0.933838 20.0 1830 966 49736 1970 3844138098 2796 0.000000 0.000000
