# ps_pos exposure_time(s) O-Beam H-Beam Monitor AUX-Beam time(s) O+H+AUX encod1 encod2
1 -1.505127 20.0 1146 1074 48953 5818 3844043893 2220 0.000000 0.000000
2 -1.461182 20.0 1217 1052 49308 5992 3844044113 2269 0.000000 0.000000
3 -1.395264 20.0 1108 1130 49370 5988 3844044141 2238 0.000000 0.000000
4 -1.351318 20.0 1173 1084 48846 6000 3844044361 2257 0.000000 0.000000
5 -1.274414 20.0 1164 1106 49001 5907 3844044389 2270 0.000000 0.000000
6 -1.208496 20.0 1022 1011 49079 6128 3844044609 2033 0.000000 0.000000
7 -1.142578 20.0 1029 987 49324 6119 3844044638 2016 0.000000 0.000000
8 -1.087646 20.0 998 991 49039 6302 3844044857 1989 0.000000 0.000000
9 -1.010742 20.0 1131 1096 48928 6051 3844044886 2227 0.000000 0.000000
10 -0.944824 20.0 1207 1154 48978 5711 3844045106 2361 0.000000 0.000000
11 -0.867920 20.0 1216 1130 49197 5626 3844045134 2346 0.000000 0.000000
12 -0.823975 20.0 1179 1111 49224 5757 3844045354 2290 0.000000 0.000000
13 -0.758057 20.0 1189 1099 49046 5694 3844045382 2288 0.000000 0.000000
14 -0.692139 20.0 1145 1054 49296 5815 3844045602 2199 0.000000 0.000000
15 -0.637207 20.0 1164 1160 48806 5649 3844045630 2324 0.000000 0.000000
16 -0.571289 20.0 1137 1116 49097 5760 3844045850 2253 0.000000 0.000000
17 -0.494385 20.0 1116 1217 48694 5727 3844045878 2333 0.000000 0.000000
18 -0.428467 20.0 1137 1134 49003 5700 3844046098 2271 0.000000 0.000000
19 -0.362549 20.0 1214 1158 48324 5683 3844046126 2372 0.000000 0.000000
20 -0.296631 20.0 1149 1092 48784 5722 3844046346 2241 0.000000 0.000000
21 -0.230713 20.0 1183 1142 49337 5710 3844046374 2325 0.000000 0.000000
22 -0.164795 20.0 1137 1097 48974 5512 3844046594 2234 0.000000 0.000000
23 -0.109863 20.0 1189 1156 49107 5655 3844046622 2345 0.000000 0.000000
24 -0.032959 20.0 1212 1167 49462 5567 3844046842 2379 0.000000 0.000000
25 0.032959 20.0 1177 1165 49831 5466 3844046870 2342 0.000000 0.000000
26 0.098877 20.0 1171 1089 49567 5586 3844047090 2260 0.000000 0.000000
27 0.164795 20.0 1150 1104 49259 5481 3844047118 2254 0.000000 0.000000
28 0.230713 20.0 1211 1148 49074 5598 3844047338 2359 0.000000 0.000000
29 0.285645 20.0 1241 1165 49113 5614 3844047366 2406 0.000000 0.000000
30 0.362549 20.0 1230 1171 48983 5465 3844047586 2401 0.000000 0.000000
31 0.428467 20.0 1229 1176 49077 5561 3844047614 2405 0.000000 0.000000
32 0.483398 20.0 1178 1111 49410 5579 3844047834 2289 0.000000 0.000000
