# ps_pos exposure_time(s) O-Beam H-Beam Monitor AUX-Beam time(s) O+H+AUX encod1 encod2
1 -1.153565 15.0 3388 1134 36415 2607 3843292806 4522 0.000000 0.000000
2 -1.098633 15.0 3084 1178 36023 2823 3843292826 4262 0.000000 0.000000
3 -1.032715 15.0 2857 1256 36077 3306 3843292846 4113 0.000000 0.000000
4 -0.966797 15.0 2341 1187 35921 4033 3843292866 3528 0.000000 0.000000
5 -0.889893 15.0 1933 1156 36434 4630 3843292886 3089 0.000000 0.000000
6 -0.834961 15.0 1406 1252 36198 5514 3843292907 2658 0.000000 0.000000
7 -0.758057 15.0 1046 1193 36246 6133 3843292927 2239 0.000000 0.000000
8 -0.692139 15.0 787 1198 36188 6526 3843292947 1985 0.000000 0.000000
9 -0.637207 15.0 807 1125 36034 6324 3843292967 1932 0.000000 0.000000
10 -0.582275 15.0 956 1208 36336 6178 3843292987 2164 0.000000 0.000000
11 -0.516357 15.0 1284 1135 36112 5737 3843293008 2419 0.000000 0.000000
12 -0.439453 15.0 1719 1159 36344 5124 3843293028 2878 0.000000 0.000000
13 -0.384522 15.0 2242 1172 36188 4466 3843293048 3414 0.000000 0.000000
14 -0.318603 15.0 2551 1053 36474 3517 3843293068 3604 0.000000 0.000000
15 -0.252686 15.0 3006 1129 36359 2993 3843293089 4135 0.000000 0.000000
16 -0.197754 15.0 3233 1132 36196 2648 3843293109 4365 0.000000 0.000000
17 -0.142822 15.0 3296 1139 36041 2535 3843293129 4435 0.000000 0.000000
18 -0.065918 15.0 3118 1154 36278 2798 3843293149 4272 0.000000 0.000000
19 0.010986 15.0 2721 1227 36193 3209 3843293170 3948 0.000000 0.000000
20 0.065918 15.0 2515 1101 36235 3838 3843293190 3616 0.000000 0.000000
21 0.120850 15.0 1946 1237 35725 4605 3843293210 3183 0.000000 0.000000
22 0.186768 15.0 1498 1221 36088 5335 3843293230 2719 0.000000 0.000000
23 0.252686 15.0 1112 1147 36385 6134 3843293250 2259 0.000000 0.000000
24 0.318603 15.0 902 1157 36272 6325 3843293271 2059 0.000000 0.000000
25 0.373535 15.0 813 1220 35848 6592 3843293291 2033 0.000000 0.000000
26 0.450439 15.0 879 1204 35975 6271 3843293311 2083 0.000000 0.000000
27 0.516357 15.0 1172 1136 36354 5923 3843293331 2308 0.000000 0.000000
28 0.571289 15.0 1473 1175 36242 5380 3843293351 2648 0.000000 0.000000
29 0.637207 15.0 2070 1204 36234 4684 3843293372 3274 0.000000 0.000000
30 0.703125 15.0 2528 1136 35945 3828 3843293392 3664 0.000000 0.000000
