# ps_pos exposure_time(s) O-Beam H-Beam Monitor AUX-Beam time(s) O+H+AUX encod1 encod2
1 -1.955566 30.0 2443 2400 73204 10503 3843923232 4843 0.000000 0.000000
2 -1.900635 30.0 1942 2813 73128 10702 3843923268 4755 0.000000 0.000000
3 -1.823730 30.0 1575 3156 73534 10403 3843923303 4731 0.000000 0.000000
4 -1.757812 30.0 1156 3414 74090 10635 3843923338 4570 0.000000 0.000000
5 -1.702881 30.0 890 3796 73548 10514 3843923373 4686 0.000000 0.000000
6 -1.636963 30.0 727 3719 73382 10499 3843923408 4446 0.000000 0.000000
7 -1.571045 30.0 794 3768 73389 10568 3843923444 4562 0.000000 0.000000
8 -1.505127 30.0 1011 3592 73759 10389 3843923479 4603 0.000000 0.000000
9 -1.439209 30.0 1372 3239 73554 10309 3843923514 4611 0.000000 0.000000
10 -1.373291 30.0 1888 2783 73437 10397 3843923549 4671 0.000000 0.000000
11 -1.318359 30.0 2306 2512 73258 10763 3843923584 4818 0.000000 0.000000
12 -1.230469 30.0 2801 2019 73464 10613 3843923620 4820 0.000000 0.000000
13 -1.175537 30.0 3011 1804 73401 10577 3843923655 4815 0.000000 0.000000
14 -1.109619 30.0 3130 1768 73585 10533 3843923690 4898 0.000000 0.000000
15 -1.032715 30.0 2996 1863 73176 10333 3843923725 4859 0.000000 0.000000
16 -0.977783 30.0 2764 2012 73216 10686 3843923760 4776 0.000000 0.000000
17 -0.889893 30.0 2259 2557 73175 10561 3843923796 4816 0.000000 0.000000
18 -0.834961 30.0 1779 3023 73464 10421 3843923831 4802 0.000000 0.000000
19 -0.769043 30.0 1375 3291 73492 10503 3843923866 4666 0.000000 0.000000
20 -0.714111 30.0 943 3700 72794 10566 3843923901 4643 0.000000 0.000000
21 -0.626221 30.0 697 3735 73215 10544 3843923936 4432 0.000000 0.000000
22 -0.571289 30.0 752 3861 73247 10472 3843923972 4613 0.000000 0.000000
23 -0.494385 30.0 954 3718 73213 10386 3843924007 4672 0.000000 0.000000
24 -0.428467 30.0 1304 3414 73470 10528 3843924042 4718 0.000000 0.000000
25 -0.351562 30.0 1708 2894 73207 10593 3843924077 4602 0.000000 0.000000
26 -0.307617 30.0 2174 2571 73056 10529 3843924112 4745 0.000000 0.000000
27 -0.230713 30.0 2618 2091 73031 10446 3843924148 4709 0.000000 0.000000
28 -0.164795 30.0 3050 1880 73643 10475 3843924183 4930 0.000000 0.000000
29 -0.098877 30.0 3135 1808 72814 10542 3843924218 4943 0.000000 0.000000
30 -0.043945 30.0 3037 1892 73595 10441 3843924253 4929 0.000000 0.000000
31 0.032959 30.0 2949 1944 73563 10423 3843924288 4893 0.000000 0.000000
32 0.098877 30.0 2490 2492 73176 10389 3843924324 4982 0.000000 0.000000
33 0.164795 30.0 1930 2809 72834 10598 3843924359 4739 0.000000 0.000000
34 0.241699 30.0 1608 3094 72892 10482 3843924394 4702 0.000000 0.000000
35 0.296631 30.0 1153 3496 72968 10489 3843924429 4649 0.000000 0.000000
36 0.351562 30.0 866 3811 73059 10517 3843924464 4677 0.000000 0.000000
37 0.428467 30.0 694 4010 73063 10604 3843924500 4704 0.000000 0.000000
38 0.472412 30.0 744 3809 73173 10216 3843924535 4553 0.000000 0.000000
39 0.549316 30.0 918 3561 73053 10551 3843924570 4479 0.000000 0.000000
40 0.626221 30.0 1286 3388 73287 10334 3843924605 4674 0.000000 0.000000
41 0.692139 30.0 1842 2828 73447 10622 3843924640 4670 0.000000 0.000000
42 0.758057 30.0 2275 2469 72858 10537 3843924676 4744 0.000000 0.000000
43 0.812988 30.0 2628 2091 73526 10560 3843924711 4719 0.000000 0.000000
44 0.889893 30.0 2982 1836 72918 10349 3843924746 4818 0.000000 0.000000
45 0.944824 30.0 3085 1719 73541 10386 3843924781 4804 0.000000 0.000000
46 1.021729 30.0 2982 1831 73911 10454 3843924816 4813 0.000000 0.000000
47 1.098633 30.0 2707 2093 73311 10674 3843924852 4800 0.000000 0.000000
48 1.153565 30.0 2217 2471 73100 10401 3843924887 4688 0.000000 0.000000
49 1.219482 30.0 1815 2841 73553 10249 3843924922 4656 0.000000 0.000000
50 1.285400 30.0 1444 3293 74129 10485 3843924957 4737 0.000000 0.000000
51 1.351318 30.0 1059 3504 73272 10333 3843924992 4563 0.000000 0.000000
52 1.417236 30.0 798 3875 73579 10542 3843925028 4673 0.000000 0.000000
53 1.483154 30.0 706 3732 73050 10395 3843925063 4438 0.000000 0.000000
54 1.538086 30.0 867 3742 73475 10484 3843925098 4609 0.000000 0.000000
55 1.614990 30.0 1084 3533 73578 10644 3843925133 4617 0.000000 0.000000
56 1.669922 30.0 1566 3105 73188 10342 3843925168 4671 0.000000 0.000000
57 1.724854 30.0 1921 2785 73239 10616 3843925204 4706 0.000000 0.000000
58 1.790771 30.0 2304 2537 72561 10343 3843925239 4841 0.000000 0.000000
59 1.856690 30.0 2683 2005 73093 10443 3843925274 4688 0.000000 0.000000
60 1.911621 30.0 2842 1892 73095 10548 3843925309 4734 0.000000 0.000000
61 1.977539 30.0 3109 1762 73188 10364 3843925344 4871 0.000000 0.000000
62 2.032471 30.0 2997 1820 73140 10433 3843925380 4817 0.000000 0.000000
63 2.109375 30.0 2746 1987 73551 10677 3843925415 4733 0.000000 0.000000
64 2.175293 30.0 2314 2430 73544 10520 3843925450 4744 0.000000 0.000000
