# ps_pos exposure_time(s) O-Beam H-Beam Monitor AUX-Beam time(s) O+H+AUX encod1 encod2
1 -2.658691 30.0 3676 4416 71031 4897 3843331911 8092 0.000000 0.000000
2 -2.603760 30.0 4750 3570 71565 4798 3843331947 8320 0.000000 0.000000
3 -2.537842 30.0 5637 2870 71477 4835 3843331982 8507 0.000000 0.000000
4 -2.460938 30.0 6138 2355 71560 4717 3843332017 8493 0.000000 0.000000
5 -2.406006 30.0 6175 2156 71371 4782 3843332052 8331 0.000000 0.000000
6 -2.340088 30.0 6150 2285 71304 4796 3843332087 8435 0.000000 0.000000
7 -2.285156 30.0 5491 2657 71330 4852 3843332123 8148 0.000000 0.000000
8 -2.208252 30.0 4786 3479 70600 4799 3843332158 8265 0.000000 0.000000
9 -2.153320 30.0 3818 4385 71527 4802 3843332193 8203 0.000000 0.000000
10 -2.087402 30.0 2879 5065 71143 4810 3843332228 7944 0.000000 0.000000
11 -2.032471 30.0 1929 6010 71442 4902 3843332264 7939 0.000000 0.000000
12 -1.966553 30.0 1367 6418 71533 4831 3843332299 7785 0.000000 0.000000
13 -1.900635 30.0 1144 6669 71686 4708 3843332334 7813 0.000000 0.000000
14 -1.823730 30.0 1350 6365 71779 4791 3843332369 7715 0.000000 0.000000
15 -1.779785 30.0 1833 6149 71952 4878 3843332404 7982 0.000000 0.000000
16 -1.702881 30.0 2580 5364 71775 4765 3843332440 7944 0.000000 0.000000
17 -1.625977 30.0 3801 4330 71533 4689 3843332475 8131 0.000000 0.000000
18 -1.560059 30.0 4856 3335 71853 4868 3843332510 8191 0.000000 0.000000
19 -1.494141 30.0 5656 2607 71496 4934 3843332546 8263 0.000000 0.000000
20 -1.439209 30.0 6009 2297 71614 4872 3843332581 8306 0.000000 0.000000
21 -1.395264 30.0 6253 2253 71475 4838 3843332616 8506 0.000000 0.000000
22 -1.318359 30.0 5834 2440 71274 4814 3843332651 8274 0.000000 0.000000
23 -1.241455 30.0 5209 3050 71365 4835 3843332687 8259 0.000000 0.000000
24 -1.164551 30.0 4350 3783 71617 4880 3843332722 8133 0.000000 0.000000
25 -1.098633 30.0 3155 4689 71780 4833 3843332757 7844 0.000000 0.000000
26 -1.032715 30.0 2409 5543 71957 4843 3843332792 7952 0.000000 0.000000
27 -0.955811 30.0 1656 6263 71389 4823 3843332827 7919 0.000000 0.000000
28 -0.922852 30.0 1259 6433 72009 4870 3843332863 7692 0.000000 0.000000
29 -0.856934 30.0 1151 6575 72079 4938 3843332898 7726 0.000000 0.000000
30 -0.780029 30.0 1447 6357 71600 4771 3843332933 7804 0.000000 0.000000
