# ps_pos exposure_time(s) O-Beam H-Beam Monitor AUX-Beam time(s) O+H+AUX encod1 encod2
1 -3.427734 30.0 6366 2245 71100 4831 3843332975 8611 0.000000 0.000000
2 -3.361816 30.0 6171 2412 71308 4859 3843333010 8583 0.000000 0.000000
3 -3.306885 30.0 5616 2808 70897 4710 3843333045 8424 0.000000 0.000000
4 -3.229980 30.0 4648 3671 71416 4816 3843333080 8319 0.000000 0.000000
5 -3.175049 30.0 3692 4447 71540 4725 3843333115 8139 0.000000 0.000000
6 -3.098145 30.0 2754 5250 71701 4661 3843333150 8004 0.000000 0.000000
7 -3.043213 30.0 1908 5957 71795 4864 3843333186 7865 0.000000 0.000000
8 -2.988281 30.0 1422 6458 71841 4906 3843333221 7880 0.000000 0.000000
9 -2.922363 30.0 1192 6659 71432 4818 3843333256 7851 0.000000 0.000000
10 -2.856445 30.0 1410 6395 71015 4904 3843333291 7805 0.000000 0.000000
11 -2.790527 30.0 1915 5960 71598 4749 3843333326 7875 0.000000 0.000000
12 -2.724609 30.0 2801 5233 71595 4916 3843333362 8034 0.000000 0.000000
13 -2.647705 30.0 3986 4249 71686 4917 3843333397 8235 0.000000 0.000000
14 -2.592773 30.0 4844 3497 71408 4787 3843333432 8341 0.000000 0.000000
15 -2.515869 30.0 5778 2526 71401 4859 3843333467 8304 0.000000 0.000000
16 -2.427979 30.0 6116 2220 71279 4693 3843333502 8336 0.000000 0.000000
17 -2.373047 30.0 6164 2145 71296 4913 3843333538 8309 0.000000 0.000000
18 -2.318115 30.0 5887 2467 71751 4877 3843333573 8354 0.000000 0.000000
19 -2.241211 30.0 5313 3057 71429 4848 3843333608 8370 0.000000 0.000000
20 -2.186279 30.0 4303 4012 71019 4830 3843333643 8315 0.000000 0.000000
21 -2.120361 30.0 3228 4744 71619 4854 3843333678 7972 0.000000 0.000000
22 -2.054443 30.0 2091 5894 71144 4938 3843333713 7985 0.000000 0.000000
23 -1.988525 30.0 1518 6247 71430 4787 3843333749 7765 0.000000 0.000000
24 -1.911621 30.0 1241 6489 71435 4876 3843333784 7730 0.000000 0.000000
25 -1.834717 30.0 1348 6320 71564 4782 3843333819 7668 0.000000 0.000000
26 -1.757812 30.0 1968 5847 71482 4868 3843333854 7815 0.000000 0.000000
27 -1.702881 30.0 2797 5145 71460 4891 3843333889 7942 0.000000 0.000000
28 -1.636963 30.0 3734 4505 71296 4814 3843333924 8239 0.000000 0.000000
29 -1.582031 30.0 4562 3661 71797 4827 3843333960 8223 0.000000 0.000000
30 -1.527100 30.0 5385 2961 71029 4846 3843333995 8346 0.000000 0.000000
