# ps_pos exposure_time(s) O-Beam H-Beam Monitor AUX-Beam time(s) O+H+AUX encod1 encod2
1 -0.812988 30.0 1300 6799 73301 4994 3843776690 8099 0.000000 0.000000
2 -0.758057 30.0 1426 6471 73266 4883 3843776725 7897 0.000000 0.000000
3 -0.681152 30.0 2076 5958 72652 4889 3843776761 8034 0.000000 0.000000
4 -0.626221 30.0 2843 5283 72617 4853 3843776796 8126 0.000000 0.000000
5 -0.571289 30.0 3676 4561 72961 4917 3843776831 8237 0.000000 0.000000
6 -0.505371 30.0 4799 3492 72448 5013 3843776867 8291 0.000000 0.000000
7 -0.439453 30.0 5469 2940 72700 4942 3843776902 8409 0.000000 0.000000
8 -0.362549 30.0 6083 2472 72804 5084 3843776937 8555 0.000000 0.000000
9 -0.296631 30.0 6207 2270 72923 4951 3843776972 8477 0.000000 0.000000
10 -0.230713 30.0 5996 2567 73402 4918 3843777008 8563 0.000000 0.000000
11 -0.164795 30.0 5445 3046 73045 4966 3843777043 8491 0.000000 0.000000
12 -0.098877 30.0 4649 3673 72737 4853 3843777078 8322 0.000000 0.000000
13 -0.032959 30.0 3696 4417 73524 4998 3843777114 8113 0.000000 0.000000
14 0.032959 30.0 2891 5333 73016 5118 3843777149 8224 0.000000 0.000000
15 0.098877 30.0 2011 5876 72440 4969 3843777184 7887 0.000000 0.000000
16 0.142822 30.0 1559 6498 72879 4928 3843777219 8057 0.000000 0.000000
17 0.208740 30.0 1350 6424 72955 4998 3843777255 7774 0.000000 0.000000
18 0.285645 30.0 1419 6438 72680 5016 3843777290 7857 0.000000 0.000000
19 0.329590 30.0 1911 5905 73368 5027 3843777325 7816 0.000000 0.000000
20 0.417480 30.0 2748 5301 73340 4989 3843777361 8049 0.000000 0.000000
21 0.483398 30.0 3808 4584 72354 5091 3843777396 8392 0.000000 0.000000
22 0.560303 30.0 4846 3564 72771 4981 3843777431 8410 0.000000 0.000000
23 0.615234 30.0 5830 2773 72852 5055 3843777466 8603 0.000000 0.000000
24 0.681152 30.0 6178 2316 72846 5087 3843777502 8494 0.000000 0.000000
25 0.769043 30.0 6153 2231 72841 5019 3843777537 8384 0.000000 0.000000
26 0.812988 30.0 5922 2590 72432 4817 3843777572 8512 0.000000 0.000000
27 0.867920 30.0 5473 2983 72643 5007 3843777607 8456 0.000000 0.000000
28 0.944824 30.0 4795 3715 72406 4884 3843777643 8510 0.000000 0.000000
29 1.010742 30.0 3640 4573 72551 4907 3843777678 8213 0.000000 0.000000
30 1.076660 30.0 2800 5408 73154 5030 3843777713 8208 0.000000 0.000000
31 1.142578 30.0 1789 6215 72475 4872 3843777749 8004 0.000000 0.000000
32 1.219482 30.0 1345 6656 73354 4970 3843777784 8001 0.000000 0.000000
