# ps_pos exposure_time(s) O-Beam H-Beam Monitor AUX-Beam time(s) O+H+AUX encod1 encod2
1 -0.900879 30.0 1458 6045 93310 11654 3843068306 7503 0.000000 0.000000
2 -0.834961 30.0 1593 5182 93333 13315 3843068341 6775 0.000000 0.000000
3 -0.769043 30.0 1635 3993 92709 14762 3843068376 5628 0.000000 0.000000
4 -0.703125 30.0 1749 3355 93191 16006 3843068411 5104 0.000000 0.000000
5 -0.648193 30.0 1915 3072 93426 16533 3843068447 4987 0.000000 0.000000
6 -0.582275 30.0 1950 3217 93179 15885 3843068482 5167 0.000000 0.000000
7 -0.527344 30.0 2014 3887 93160 14771 3843068517 5901 0.000000 0.000000
8 -0.461426 30.0 1975 4789 92549 13216 3843068552 6764 0.000000 0.000000
9 -0.395508 30.0 1998 5806 93182 11272 3843068588 7804 0.000000 0.000000
10 -0.329590 30.0 1805 7122 92389 9301 3843068623 8927 0.000000 0.000000
11 -0.274658 30.0 1794 7717 92984 7900 3843068658 9511 0.000000 0.000000
12 -0.208740 30.0 1679 8458 92628 6950 3843068693 10137 0.000000 0.000000
13 -0.142822 30.0 1489 8748 92953 6469 3843068728 10237 0.000000 0.000000
14 -0.087891 30.0 1454 8750 93212 6610 3843068764 10204 0.000000 0.000000
15 -0.021973 30.0 1375 8367 92845 7407 3843068799 9742 0.000000 0.000000
16 0.043945 30.0 1401 7624 92964 8800 3843068834 9025 0.000000 0.000000
17 0.098877 30.0 1389 6961 92740 10388 3843068869 8350 0.000000 0.000000
18 0.164795 30.0 1393 5415 93199 12260 3843068904 6808 0.000000 0.000000
19 0.230713 30.0 1423 4698 93302 14017 3843068940 6121 0.000000 0.000000
20 0.296631 30.0 1631 3710 93128 15381 3843068975 5341 0.000000 0.000000
21 0.351562 30.0 1722 3305 93299 16303 3843069010 5027 0.000000 0.000000
22 0.428467 30.0 1862 3151 92538 15816 3843069045 5013 0.000000 0.000000
23 0.505371 30.0 2006 3581 92457 15212 3843069081 5587 0.000000 0.000000
24 0.571289 30.0 1975 4499 92669 13779 3843069116 6474 0.000000 0.000000
25 0.637207 30.0 1910 5560 92819 11720 3843069151 7470 0.000000 0.000000
26 0.692139 30.0 1836 6486 92569 10170 3843069186 8322 0.000000 0.000000
27 0.758057 30.0 1849 7679 92345 8131 3843069221 9528 0.000000 0.000000
28 0.812988 30.0 1646 8459 92566 6945 3843069257 10105 0.000000 0.000000
29 0.889893 30.0 1473 8692 92798 6257 3843069292 10165 0.000000 0.000000
30 0.955811 30.0 1383 8609 92735 6763 3843069327 9992 0.000000 0.000000
