# ps_pos exposure_time(s) O-Beam H-Beam Monitor AUX-Beam time(s) O+H+AUX encod1 encod2
1 -0.856934 30.0 1165 6387 71865 4705 3843316933 7552 0.000000 0.000000
2 -0.791016 30.0 1355 6235 71262 4720 3843316968 7590 0.000000 0.000000
3 -0.714111 30.0 2089 5583 70964 4630 3843317003 7672 0.000000 0.000000
4 -0.659180 30.0 2903 4981 71683 4704 3843317038 7884 0.000000 0.000000
5 -0.615234 30.0 3763 4363 71420 4785 3843317073 8126 0.000000 0.000000
6 -0.527344 30.0 4829 3479 71914 4571 3843317108 8308 0.000000 0.000000
7 -0.483398 30.0 5486 2716 71750 4681 3843317144 8202 0.000000 0.000000
8 -0.406494 30.0 6003 2178 71634 4626 3843317179 8181 0.000000 0.000000
9 -0.329590 30.0 5990 2099 71529 4714 3843317214 8089 0.000000 0.000000
10 -0.263672 30.0 5749 2421 71544 4717 3843317249 8170 0.000000 0.000000
11 -0.197754 30.0 5161 2959 71149 4670 3843317284 8120 0.000000 0.000000
12 -0.142822 30.0 4264 3775 71284 4665 3843317320 8039 0.000000 0.000000
13 -0.076904 30.0 3261 4579 71474 4694 3843317355 7840 0.000000 0.000000
14 -0.010986 30.0 2424 5308 71236 4766 3843317390 7732 0.000000 0.000000
15 0.065918 30.0 1772 5933 72240 4721 3843317425 7705 0.000000 0.000000
16 0.120850 30.0 1262 6197 71689 4632 3843317460 7459 0.000000 0.000000
17 0.175781 30.0 1136 6457 71194 4646 3843317496 7593 0.000000 0.000000
18 0.252686 30.0 1433 6204 71258 4699 3843317531 7637 0.000000 0.000000
19 0.329590 30.0 2189 5352 71719 4708 3843317566 7541 0.000000 0.000000
20 0.384522 30.0 3038 4753 71186 4796 3843317601 7791 0.000000 0.000000
21 0.450439 30.0 3845 4013 71157 4726 3843317636 7858 0.000000 0.000000
22 0.516357 30.0 4923 3211 71222 4693 3843317672 8134 0.000000 0.000000
23 0.604248 30.0 5787 2443 71758 4750 3843317707 8230 0.000000 0.000000
24 0.648193 30.0 6189 2196 71086 4837 3843317742 8385 0.000000 0.000000
25 0.714111 30.0 6112 2060 71476 4744 3843317777 8172 0.000000 0.000000
26 0.780029 30.0 5756 2421 71611 4500 3843317812 8177 0.000000 0.000000
27 0.845947 30.0 4897 3057 71263 4620 3843317848 7954 0.000000 0.000000
28 0.911865 30.0 3918 4056 70872 4767 3843317883 7974 0.000000 0.000000
29 0.988769 30.0 3065 4787 71115 4726 3843317918 7852 0.000000 0.000000
30 1.054688 30.0 2109 5612 71296 4624 3843317953 7721 0.000000 0.000000
