# ps_pos exposure_time(s) O-Beam H-Beam Monitor AUX-Beam time(s) O+H+AUX encod1 encod2
1 -1.636963 30.0 3475 4516 71737 4820 3843314808 7991 0.000000 0.000000
2 -1.582031 30.0 4269 3856 71699 4699 3843314844 8125 0.000000 0.000000
3 -1.505127 30.0 5153 2933 71145 4745 3843314879 8086 0.000000 0.000000
4 -1.450195 30.0 5853 2314 71125 4633 3843314914 8167 0.000000 0.000000
5 -1.384277 30.0 6156 2098 71435 4886 3843314949 8254 0.000000 0.000000
6 -1.318359 30.0 6058 2263 71025 4720 3843314984 8321 0.000000 0.000000
7 -1.252441 30.0 5394 2736 71379 4688 3843315019 8130 0.000000 0.000000
8 -1.164551 30.0 4633 3497 71748 4776 3843315055 8130 0.000000 0.000000
9 -1.120605 30.0 3568 4315 71091 4695 3843315090 7883 0.000000 0.000000
10 -1.054688 30.0 2689 5029 70905 4704 3843315125 7718 0.000000 0.000000
11 -0.999756 30.0 1868 5805 71251 4733 3843315160 7673 0.000000 0.000000
12 -0.922852 30.0 1260 6382 71527 4790 3843315195 7642 0.000000 0.000000
13 -0.845947 30.0 1152 6430 71420 4655 3843315231 7582 0.000000 0.000000
14 -0.791016 30.0 1361 6217 71043 4701 3843315266 7578 0.000000 0.000000
15 -0.725098 30.0 1860 5763 71409 4712 3843315301 7623 0.000000 0.000000
16 -0.670166 30.0 2900 5070 71333 4719 3843315336 7970 0.000000 0.000000
17 -0.604248 30.0 3654 4211 71150 4821 3843315371 7865 0.000000 0.000000
18 -0.538330 30.0 4610 3415 71413 4651 3843315407 8025 0.000000 0.000000
19 -0.483398 30.0 5475 2683 71307 4634 3843315442 8158 0.000000 0.000000
20 -0.406494 30.0 6010 2220 71354 4669 3843315477 8230 0.000000 0.000000
21 -0.340576 30.0 6187 2195 70933 4621 3843315512 8382 0.000000 0.000000
22 -0.274658 30.0 5817 2310 71959 4761 3843315547 8127 0.000000 0.000000
23 -0.230713 30.0 5497 2754 71833 4676 3843315583 8251 0.000000 0.000000
24 -0.164795 30.0 4766 3266 71162 4710 3843315618 8032 0.000000 0.000000
25 -0.120850 30.0 3944 4103 71675 4681 3843315653 8047 0.000000 0.000000
26 -0.032959 30.0 2752 5068 71430 4685 3843315688 7820 0.000000 0.000000
27 0.032959 30.0 2146 5598 71142 4818 3843315723 7744 0.000000 0.000000
28 0.087891 30.0 1429 6194 71526 4712 3843315759 7623 0.000000 0.000000
29 0.153809 30.0 1249 6378 71080 4686 3843315794 7627 0.000000 0.000000
30 0.219727 30.0 1220 6433 70950 4695 3843315829 7653 0.000000 0.000000
