# ps_pos exposure_time(s) O-Beam H-Beam Monitor AUX-Beam time(s) O+H+AUX encod1 encod2
1 -1.669922 30.0 1455 4245 75213 8447 3844209158 5700 0.000000 0.000000
2 -1.625977 30.0 1289 5015 74817 7293 3844209195 6304 0.000000 0.000000
3 -1.538086 30.0 1399 5504 74458 6154 3844209231 6903 0.000000 0.000000
4 -1.472168 30.0 1299 5908 74482 5679 3844209267 7207 0.000000 0.000000
5 -1.417236 30.0 1164 6111 74903 5337 3844209303 7275 0.000000 0.000000
6 -1.351318 30.0 1279 6024 74420 5709 3844209339 7303 0.000000 0.000000
7 -1.296387 30.0 1348 5494 74860 6450 3844209376 6842 0.000000 0.000000
8 -1.219482 30.0 1397 4807 75116 7475 3844209412 6204 0.000000 0.000000
9 -1.175537 30.0 1559 4079 75030 8651 3844209448 5638 0.000000 0.000000
10 -1.098633 30.0 1600 3447 74705 9661 3844209484 5047 0.000000 0.000000
11 -1.054688 30.0 1668 2889 74789 10655 3844209520 4557 0.000000 0.000000
12 -0.977783 30.0 1738 2484 74675 11565 3844209557 4222 0.000000 0.000000
13 -0.911865 30.0 1794 2279 74588 11872 3844209593 4073 0.000000 0.000000
14 -0.845947 30.0 1800 2393 74609 11294 3844209629 4193 0.000000 0.000000
15 -0.791016 30.0 1840 2768 74761 10758 3844209665 4608 0.000000 0.000000
16 -0.714111 30.0 1820 3217 74763 9722 3844209701 5037 0.000000 0.000000
17 -0.659180 30.0 1762 4064 75254 8640 3844209738 5826 0.000000 0.000000
18 -0.582275 30.0 1823 4792 75336 6993 3844209774 6615 0.000000 0.000000
19 -0.527344 30.0 1403 5314 75756 6166 3844209810 6717 0.000000 0.000000
20 -0.450439 30.0 1563 5759 74933 5600 3844209846 7322 0.000000 0.000000
21 -0.395508 30.0 1436 5889 74993 5441 3844209882 7325 0.000000 0.000000
22 -0.318603 30.0 1307 5870 74723 5643 3844209919 7177 0.000000 0.000000
23 -0.241699 30.0 1164 5517 74785 6411 3844209955 6681 0.000000 0.000000
24 -0.186768 30.0 1145 5057 74808 7608 3844209991 6202 0.000000 0.000000
25 -0.109863 30.0 1233 4220 74790 8933 3844210027 5453 0.000000 0.000000
26 -0.054932 30.0 1419 3563 74174 9833 3844210063 4982 0.000000 0.000000
27 0.010986 30.0 1473 2940 74837 10869 3844210100 4413 0.000000 0.000000
28 0.076904 30.0 1683 2437 74391 11613 3844210136 4120 0.000000 0.000000
29 0.131836 30.0 1775 2210 74708 11610 3844210172 3985 0.000000 0.000000
30 0.186768 30.0 1752 2279 74301 11427 3844210208 4031 0.000000 0.000000
31 0.252686 30.0 2000 2500 74843 10977 3844210244 4500 0.000000 0.000000
32 0.318603 30.0 2019 3111 74809 9643 3844210281 5130 0.000000 0.000000
33 0.373535 30.0 1903 3766 74602 8722 3844210317 5669 0.000000 0.000000
34 0.461426 30.0 1886 4554 74900 7397 3844210353 6440 0.000000 0.000000
35 0.516357 30.0 1866 5181 75599 6239 3844210389 7047 0.000000 0.000000
36 0.582275 30.0 1671 5632 75415 5414 3844210426 7303 0.000000 0.000000
37 0.648193 30.0 1471 5862 75253 5302 3844210462 7333 0.000000 0.000000
38 0.703125 30.0 1298 5992 75583 5626 3844210498 7290 0.000000 0.000000
39 0.769043 30.0 1115 5850 76029 6361 3844210534 6965 0.000000 0.000000
40 0.834961 30.0 1072 5248 75511 7211 3844210570 6320 0.000000 0.000000
41 0.900879 30.0 1180 4554 75596 8754 3844210607 5734 0.000000 0.000000
42 0.966797 30.0 1278 3809 75634 9764 3844210643 5087 0.000000 0.000000
43 1.032715 30.0 1380 3152 75370 10694 3844210679 4532 0.000000 0.000000
44 1.087646 30.0 1499 2670 75282 11371 3844210715 4169 0.000000 0.000000
45 1.153565 30.0 1767 2282 74945 11559 3844210751 4049 0.000000 0.000000
46 1.208496 30.0 1917 2275 74774 11413 3844210788 4192 0.000000 0.000000
47 1.274414 30.0 1897 2514 74578 11160 3844210824 4411 0.000000 0.000000
48 1.340332 30.0 2033 3076 74451 9909 3844210860 5109 0.000000 0.000000
