# ps_pos exposure_time(s) O-Beam H-Beam Monitor AUX-Beam time(s) O+H+AUX encod1 encod2
1 -0.098877 30.0 4099 1789 71360 8646 3843423791 5888 0.000000 0.000000
2 -0.054932 30.0 3713 2224 71423 8644 3843423827 5937 0.000000 0.000000
3 0.010986 30.0 3205 2549 71345 8655 3843423862 5754 0.000000 0.000000
4 0.065918 30.0 2520 3143 71248 8614 3843423897 5663 0.000000 0.000000
5 0.153809 30.0 1803 3901 71293 8699 3843423932 5704 0.000000 0.000000
6 0.230713 30.0 1200 4257 71209 8861 3843423968 5457 0.000000 0.000000
7 0.285645 30.0 761 4581 71723 8874 3843424003 5342 0.000000 0.000000
8 0.362549 30.0 642 4767 71458 8882 3843424038 5409 0.000000 0.000000
9 0.417480 30.0 778 4621 71246 8572 3843424073 5399 0.000000 0.000000
10 0.494385 30.0 1213 4264 71662 8777 3843424108 5477 0.000000 0.000000
11 0.560303 30.0 1847 3803 71206 8804 3843424144 5650 0.000000 0.000000
12 0.615234 30.0 2616 3129 71722 8582 3843424179 5745 0.000000 0.000000
13 0.681152 30.0 3197 2544 71325 8652 3843424214 5741 0.000000 0.000000
14 0.747070 30.0 3692 1986 71583 8611 3843424249 5678 0.000000 0.000000
15 0.834961 30.0 4161 1767 71556 8699 3843424284 5928 0.000000 0.000000
16 0.889893 30.0 4079 1795 71528 8641 3843424320 5874 0.000000 0.000000
17 0.944824 30.0 3996 1998 71635 8798 3843424355 5994 0.000000 0.000000
18 0.988769 30.0 3564 2155 71381 8744 3843424390 5719 0.000000 0.000000
19 1.076660 30.0 2868 2746 71614 8542 3843424425 5614 0.000000 0.000000
20 1.120605 30.0 2351 3278 71316 8654 3843424461 5629 0.000000 0.000000
21 1.186523 30.0 1632 3878 71423 8735 3843424496 5510 0.000000 0.000000
22 1.263428 30.0 1135 4361 71573 8606 3843424531 5496 0.000000 0.000000
23 1.329346 30.0 806 4622 71374 8769 3843424566 5428 0.000000 0.000000
24 1.384277 30.0 652 4793 71716 8732 3843424601 5445 0.000000 0.000000
25 1.450195 30.0 802 4600 71848 8670 3843424637 5402 0.000000 0.000000
26 1.527100 30.0 1228 4234 71399 8668 3843424672 5462 0.000000 0.000000
27 1.582031 30.0 1834 3808 72094 8995 3843424707 5642 0.000000 0.000000
28 1.647949 30.0 2568 3116 71486 8819 3843424742 5684 0.000000 0.000000
29 1.724854 30.0 3230 2571 71202 8654 3843424778 5801 0.000000 0.000000
30 1.790771 30.0 3640 2127 71893 8553 3843424813 5767 0.000000 0.000000
31 1.845703 30.0 4035 1794 71581 8894 3843424848 5829 0.000000 0.000000
32 1.900635 30.0 4031 1776 71101 8756 3843424883 5807 0.000000 0.000000
