# ps_pos exposure_time(s) O-Beam H-Beam Monitor AUX-Beam time(s) O+H+AUX encod1 encod2
1 -0.021973 30.0 3485 2400 72548 9262 3843789541 5885 0.000000 0.000000
2 0.043945 30.0 3038 2917 72427 8983 3843789577 5955 0.000000 0.000000
3 0.109863 30.0 2437 3416 72978 9185 3843789612 5853 0.000000 0.000000
4 0.186768 30.0 1793 3862 72439 9289 3843789647 5655 0.000000 0.000000
5 0.241699 30.0 1151 4457 72450 9390 3843789683 5608 0.000000 0.000000
6 0.307617 30.0 910 4752 73032 9308 3843789718 5662 0.000000 0.000000
7 0.373535 30.0 856 4669 73202 9159 3843789753 5525 0.000000 0.000000
8 0.439453 30.0 944 4654 71843 9428 3843789789 5598 0.000000 0.000000
9 0.505371 30.0 1326 4431 72831 9330 3843789824 5757 0.000000 0.000000
10 0.549316 30.0 1886 3867 72738 9372 3843789859 5753 0.000000 0.000000
11 0.615234 30.0 2464 3370 73007 9286 3843789895 5834 0.000000 0.000000
12 0.681152 30.0 3140 2668 72699 9180 3843789930 5808 0.000000 0.000000
13 0.747070 30.0 3699 2193 72563 9278 3843789965 5892 0.000000 0.000000
14 0.834961 30.0 4161 1975 72389 9427 3843790000 6136 0.000000 0.000000
15 0.889893 30.0 4160 1890 72691 9270 3843790036 6050 0.000000 0.000000
16 0.966797 30.0 3934 2044 72704 9365 3843790071 5978 0.000000 0.000000
17 1.032715 30.0 3515 2356 73058 9328 3843790106 5871 0.000000 0.000000
18 1.087646 30.0 2778 3020 73136 9256 3843790142 5798 0.000000 0.000000
19 1.153565 30.0 2294 3579 72897 9374 3843790177 5873 0.000000 0.000000
20 1.230469 30.0 1586 3842 73091 9260 3843790212 5428 0.000000 0.000000
21 1.296387 30.0 1113 4232 73504 9393 3843790248 5345 0.000000 0.000000
22 1.351318 30.0 964 4641 73125 9425 3843790283 5605 0.000000 0.000000
23 1.428223 30.0 782 4553 73150 9526 3843790318 5335 0.000000 0.000000
24 1.483154 30.0 1159 4461 72575 9365 3843790354 5620 0.000000 0.000000
25 1.560059 30.0 1630 4041 72994 9407 3843790389 5671 0.000000 0.000000
26 1.625977 30.0 2194 3599 73195 9200 3843790424 5793 0.000000 0.000000
27 1.669922 30.0 2623 3042 73036 9337 3843790459 5665 0.000000 0.000000
28 1.724854 30.0 3162 2702 73319 9396 3843790495 5864 0.000000 0.000000
29 1.790771 30.0 3643 2262 72759 9451 3843790530 5905 0.000000 0.000000
30 1.856690 30.0 3981 1962 72626 9329 3843790565 5943 0.000000 0.000000
31 1.911621 30.0 4060 1869 72972 9418 3843790601 5929 0.000000 0.000000
32 1.988525 30.0 3982 2046 73275 9363 3843790636 6028 0.000000 0.000000
