# ps_pos exposure_time(s) O-Beam H-Beam Monitor AUX-Beam time(s) O+H+AUX encod1 encod2
1 0.494385 30.0 1280 4314 72755 9274 3843790678 5594 0.000000 0.000000
2 0.560303 30.0 1871 3935 72795 9393 3843790713 5806 0.000000 0.000000
3 0.626221 30.0 2516 3228 73082 9504 3843790748 5744 0.000000 0.000000
4 0.692139 30.0 3057 2709 73129 9758 3843790784 5766 0.000000 0.000000
5 0.747070 30.0 3541 2195 72815 9496 3843790819 5736 0.000000 0.000000
6 0.812988 30.0 3980 1885 72692 9455 3843790854 5865 0.000000 0.000000
7 0.878906 30.0 4042 1833 72442 9509 3843790890 5875 0.000000 0.000000
8 0.955811 30.0 3873 2003 73274 9555 3843790925 5876 0.000000 0.000000
9 1.021729 30.0 3572 2350 73079 9294 3843790960 5922 0.000000 0.000000
10 1.076660 30.0 3056 2847 72452 9439 3843790996 5903 0.000000 0.000000
11 1.153565 30.0 2299 3354 73006 9291 3843791031 5653 0.000000 0.000000
12 1.208496 30.0 1743 3855 73031 9690 3843791066 5598 0.000000 0.000000
13 1.296387 30.0 1092 4317 73104 9289 3843791102 5409 0.000000 0.000000
14 1.362305 30.0 869 4595 73473 9546 3843791137 5464 0.000000 0.000000
15 1.439209 30.0 842 4660 72886 9710 3843791172 5502 0.000000 0.000000
16 1.494141 30.0 1110 4315 72969 9651 3843791207 5425 0.000000 0.000000
17 1.549072 30.0 1427 4081 72745 9370 3843791243 5508 0.000000 0.000000
18 1.614990 30.0 2126 3565 72545 9572 3843791278 5691 0.000000 0.000000
19 1.669922 30.0 2748 3022 73209 9585 3843791313 5770 0.000000 0.000000
20 1.735840 30.0 3269 2568 73413 9581 3843791349 5837 0.000000 0.000000
21 1.801758 30.0 3767 2162 72900 9563 3843791384 5929 0.000000 0.000000
22 1.856690 30.0 3890 1821 72976 9585 3843791419 5711 0.000000 0.000000
23 1.933594 30.0 4006 1940 72875 9478 3843791454 5946 0.000000 0.000000
24 1.999512 30.0 3705 2055 72572 9373 3843791490 5760 0.000000 0.000000
25 2.065430 30.0 3361 2444 72936 9721 3843791525 5805 0.000000 0.000000
26 2.142334 30.0 2657 3053 72380 9622 3843791560 5710 0.000000 0.000000
27 2.208252 30.0 2041 3495 72890 9457 3843791596 5536 0.000000 0.000000
28 2.274170 30.0 1461 4061 72826 9696 3843791631 5522 0.000000 0.000000
29 2.329102 30.0 1012 4494 72809 9765 3843791666 5506 0.000000 0.000000
30 2.406006 30.0 930 4544 72971 9495 3843791702 5474 0.000000 0.000000
31 2.471924 30.0 1055 4475 72952 9508 3843791737 5530 0.000000 0.000000
32 2.526855 30.0 1265 4186 72796 9745 3843791772 5451 0.000000 0.000000
