# ps_pos exposure_time(s) O-Beam H-Beam Monitor AUX-Beam time(s) O+H+AUX encod1 encod2
1 -0.582275 30.0 1859 3055 92687 16124 3843094006 4914 0.000000 0.000000
2 -0.527344 30.0 2142 2797 93214 15950 3843094042 4939 0.000000 0.000000
3 -0.461426 30.0 2884 2716 93742 14750 3843094077 5600 0.000000 0.000000
4 -0.406494 30.0 3715 2725 93223 13389 3843094112 6440 0.000000 0.000000
5 -0.329590 30.0 5136 2590 93222 11586 3843094147 7726 0.000000 0.000000
6 -0.252686 30.0 6167 2686 92942 9563 3843094183 8853 0.000000 0.000000
7 -0.208740 30.0 7408 2629 93782 7998 3843094218 10037 0.000000 0.000000
8 -0.142822 30.0 7802 2780 93727 6901 3843094253 10582 0.000000 0.000000
9 -0.076904 30.0 8093 2831 93141 6381 3843094288 10924 0.000000 0.000000
10 -0.021973 30.0 7931 2899 93382 6321 3843094324 10830 0.000000 0.000000
11 0.043945 30.0 7330 3023 93427 7430 3843094359 10353 0.000000 0.000000
12 0.120850 30.0 6136 3112 92706 8644 3843094394 9248 0.000000 0.000000
13 0.175781 30.0 4954 3264 93523 10788 3843094429 8218 0.000000 0.000000
14 0.263672 30.0 3556 3193 93063 13079 3843094465 6749 0.000000 0.000000
15 0.318603 30.0 2882 3211 92789 14278 3843094500 6093 0.000000 0.000000
16 0.384522 30.0 2088 3034 93549 15639 3843094535 5122 0.000000 0.000000
17 0.450439 30.0 1919 2960 93186 16181 3843094570 4879 0.000000 0.000000
18 0.505371 30.0 2144 2763 92954 16080 3843094606 4907 0.000000 0.000000
19 0.582275 30.0 2821 2848 92704 15006 3843094641 5669 0.000000 0.000000
20 0.637207 30.0 3892 2676 93144 13469 3843094676 6568 0.000000 0.000000
21 0.692139 30.0 4952 2662 92849 11708 3843094712 7614 0.000000 0.000000
22 0.769043 30.0 6212 2523 93116 9607 3843094747 8735 0.000000 0.000000
23 0.823975 30.0 7370 2737 93113 7847 3843094782 10107 0.000000 0.000000
24 0.878906 30.0 7888 2724 93043 6817 3843094817 10612 0.000000 0.000000
25 0.944824 30.0 8094 2858 93220 6330 3843094853 10952 0.000000 0.000000
26 1.010742 30.0 8080 2906 92942 6624 3843094888 10986 0.000000 0.000000
27 1.076660 30.0 7176 3041 93322 7056 3843094923 10217 0.000000 0.000000
28 1.142578 30.0 6283 3115 93260 8579 3843094958 9398 0.000000 0.000000
29 1.197510 30.0 5354 3212 92736 10211 3843094994 8566 0.000000 0.000000
30 1.263428 30.0 4225 3196 92816 12099 3843095029 7421 0.000000 0.000000
