# ps_pos exposure_time(s) O-Beam H-Beam Monitor AUX-Beam time(s) O+H+AUX encod1 encod2
1 -0.329590 30.0 5152 2650 93370 11290 3843092942 7802 0.000000 0.000000
2 -0.263672 30.0 6432 2702 93181 9562 3843092978 9134 0.000000 0.000000
3 -0.197754 30.0 7323 2648 93291 7548 3843093013 9971 0.000000 0.000000
4 -0.131836 30.0 7857 2763 93316 6694 3843093048 10620 0.000000 0.000000
5 -0.065918 30.0 8120 2849 93238 6433 3843093083 10969 0.000000 0.000000
6 0.000000 30.0 7814 2904 93048 6457 3843093119 10718 0.000000 0.000000
7 0.054932 30.0 7161 3055 93227 7556 3843093154 10216 0.000000 0.000000
8 0.120850 30.0 6112 3185 93284 8835 3843093189 9297 0.000000 0.000000
9 0.186768 30.0 5110 3130 93037 10529 3843093225 8240 0.000000 0.000000
10 0.241699 30.0 3810 3293 92952 12651 3843093260 7103 0.000000 0.000000
11 0.307617 30.0 2794 3097 93161 14543 3843093295 5891 0.000000 0.000000
12 0.362549 30.0 2103 3108 93824 15631 3843093330 5211 0.000000 0.000000
13 0.428467 30.0 1938 3050 92995 15971 3843093365 4988 0.000000 0.000000
14 0.472412 30.0 1875 2907 93536 15831 3843093401 4782 0.000000 0.000000
15 0.549316 30.0 2365 2832 93636 15539 3843093436 5197 0.000000 0.000000
16 0.626221 30.0 3362 2723 93181 14275 3843093471 6085 0.000000 0.000000
17 0.692139 30.0 4855 2703 93693 11865 3843093506 7558 0.000000 0.000000
18 0.747070 30.0 5940 2495 93043 9943 3843093542 8435 0.000000 0.000000
19 0.812988 30.0 7087 2685 93041 8277 3843093577 9772 0.000000 0.000000
20 0.889893 30.0 7665 2784 92905 7120 3843093612 10449 0.000000 0.000000
21 0.944824 30.0 8252 2741 93512 6331 3843093647 10993 0.000000 0.000000
22 1.010742 30.0 8067 2884 93164 6250 3843093683 10951 0.000000 0.000000
23 1.087646 30.0 7279 3056 93417 7389 3843093718 10335 0.000000 0.000000
24 1.142578 30.0 6148 2967 93136 8800 3843093753 9115 0.000000 0.000000
25 1.219482 30.0 5051 3200 93288 10989 3843093788 8251 0.000000 0.000000
26 1.274414 30.0 3626 3153 93267 12716 3843093824 6779 0.000000 0.000000
27 1.351318 30.0 2651 3167 93379 14746 3843093859 5818 0.000000 0.000000
28 1.417236 30.0 2124 2908 92816 15414 3843093894 5032 0.000000 0.000000
29 1.494141 30.0 1887 2952 92897 16042 3843093929 4839 0.000000 0.000000
30 1.549072 30.0 2125 2927 93019 15730 3843093965 5052 0.000000 0.000000
