# ps_pos exposure_time(s) O-Beam H-Beam Monitor AUX-Beam time(s) O+H+AUX encod1 encod2
1 -1.549072 30.0 4116 4540 73621 5469 3843271675 8656 0.000000 0.000000
2 -1.483154 30.0 5208 3712 74739 5224 3843271711 8920 0.000000 0.000000
3 -1.439209 30.0 5793 3087 73890 5128 3843271746 8880 0.000000 0.000000
4 -1.384277 30.0 6474 2614 73927 5280 3843271781 9088 0.000000 0.000000
5 -1.307373 30.0 6831 2310 73796 5408 3843271816 9141 0.000000 0.000000
6 -1.252441 30.0 6586 2555 73828 5290 3843271851 9141 0.000000 0.000000
7 -1.164551 30.0 5936 3055 74210 5320 3843271886 8991 0.000000 0.000000
8 -1.109619 30.0 5183 3713 73790 5265 3843271922 8896 0.000000 0.000000
9 -1.065674 30.0 4159 4550 73491 5317 3843271957 8709 0.000000 0.000000
10 -0.999756 30.0 3311 5404 74555 5172 3843271992 8715 0.000000 0.000000
11 -0.922852 30.0 2396 6197 74323 5414 3843272027 8593 0.000000 0.000000
12 -0.856934 30.0 1591 6760 73786 5340 3843272062 8351 0.000000 0.000000
13 -0.791016 30.0 1312 7214 73967 5297 3843272098 8526 0.000000 0.000000
14 -0.736084 30.0 1463 6866 74682 5333 3843272133 8329 0.000000 0.000000
15 -0.670166 30.0 2035 6481 74005 5359 3843272168 8516 0.000000 0.000000
16 -0.615234 30.0 2851 5599 73982 5229 3843272203 8450 0.000000 0.000000
17 -0.560303 30.0 3799 5002 74333 5362 3843272238 8801 0.000000 0.000000
18 -0.494385 30.0 4708 3999 73861 5361 3843272273 8707 0.000000 0.000000
19 -0.428467 30.0 5795 3225 74359 5175 3843272309 9020 0.000000 0.000000
20 -0.373535 30.0 6395 2681 74534 5335 3843272344 9076 0.000000 0.000000
21 -0.307617 30.0 6682 2337 74488 5186 3843272379 9019 0.000000 0.000000
22 -0.241699 30.0 6620 2356 74384 5158 3843272414 8976 0.000000 0.000000
23 -0.175781 30.0 6282 2826 74320 5382 3843272449 9108 0.000000 0.000000
24 -0.098877 30.0 5262 3585 74514 5303 3843272485 8847 0.000000 0.000000
25 -0.032959 30.0 4250 4566 74573 5279 3843272520 8816 0.000000 0.000000
26 0.010986 30.0 3660 5181 74161 5327 3843272555 8841 0.000000 0.000000
27 0.076904 30.0 2593 5920 74769 5325 3843272590 8513 0.000000 0.000000
28 0.164795 30.0 1903 6568 74808 5387 3843272625 8471 0.000000 0.000000
29 0.208740 30.0 1404 6956 74433 5232 3843272660 8360 0.000000 0.000000
30 0.285645 30.0 1421 7002 74413 5306 3843272696 8423 0.000000 0.000000
