# ps_pos exposure_time(s) O-Beam H-Beam Monitor AUX-Beam time(s) O+H+AUX encod1 encod2
1 -0.780029 30.0 1308 6979 72527 5071 3843273801 8287 0.000000 0.000000
2 -0.725098 30.0 1416 6822 72662 5249 3843273837 8238 0.000000 0.000000
3 -0.670166 30.0 2123 6091 73169 5141 3843273872 8214 0.000000 0.000000
4 -0.604248 30.0 2935 5474 72847 5280 3843273907 8409 0.000000 0.000000
5 -0.516357 30.0 4282 4345 72950 5074 3843273942 8627 0.000000 0.000000
6 -0.461426 30.0 5207 3440 73270 5139 3843273977 8647 0.000000 0.000000
7 -0.384522 30.0 6122 2806 72874 5294 3843274013 8928 0.000000 0.000000
8 -0.307617 30.0 6400 2498 73072 5202 3843274048 8898 0.000000 0.000000
9 -0.263672 30.0 6638 2382 73110 5217 3843274083 9020 0.000000 0.000000
10 -0.186768 30.0 6197 2686 72950 5226 3843274118 8883 0.000000 0.000000
11 -0.109863 30.0 5523 3286 72805 5219 3843274153 8809 0.000000 0.000000
12 -0.043945 30.0 4513 4326 73011 5278 3843274189 8839 0.000000 0.000000
13 0.021973 30.0 3423 5036 72644 5199 3843274224 8459 0.000000 0.000000
14 0.076904 30.0 2778 5667 72865 5310 3843274259 8445 0.000000 0.000000
15 0.142822 30.0 1851 6334 73026 5135 3843274295 8185 0.000000 0.000000
16 0.219727 30.0 1376 6807 72693 5142 3843274334 8183 0.000000 0.000000
17 0.274658 30.0 1416 6866 73404 5203 3843274369 8282 0.000000 0.000000
18 0.340576 30.0 1854 6416 73106 5311 3843274404 8270 0.000000 0.000000
19 0.406494 30.0 2485 5977 73655 5326 3843274439 8462 0.000000 0.000000
20 0.483398 30.0 3522 5026 73357 5186 3843274474 8548 0.000000 0.000000
21 0.549316 30.0 4569 4141 73204 5215 3843274510 8710 0.000000 0.000000
22 0.604248 30.0 5377 3444 73181 5215 3843274545 8821 0.000000 0.000000
23 0.681152 30.0 6209 2766 73470 5234 3843274580 8975 0.000000 0.000000
24 0.725098 30.0 6563 2386 72898 5364 3843274615 8949 0.000000 0.000000
25 0.802002 30.0 6385 2384 73484 5226 3843274650 8769 0.000000 0.000000
26 0.867920 30.0 6017 2838 73402 5232 3843274686 8855 0.000000 0.000000
27 0.922852 30.0 5613 3341 73208 5304 3843274721 8954 0.000000 0.000000
28 0.988769 30.0 4384 4221 73230 5222 3843274756 8605 0.000000 0.000000
29 1.065674 30.0 3521 5102 73044 5238 3843274791 8623 0.000000 0.000000
30 1.120605 30.0 2511 5854 73003 5246 3843274826 8365 0.000000 0.000000
