# ps_pos exposure_time(s) O-Beam H-Beam Monitor AUX-Beam time(s) O+H+AUX encod1 encod2
1 -2.087402 30.0 3863 4429 72994 4996 3843284122 8292 0.000000 0.000000
2 -2.032471 30.0 2670 5486 72763 4945 3843284157 8156 0.000000 0.000000
3 -1.966553 30.0 1951 6073 72491 4948 3843284192 8024 0.000000 0.000000
4 -1.889648 30.0 1328 6649 72641 4782 3843284227 7977 0.000000 0.000000
5 -1.834717 30.0 1272 6680 72210 4964 3843284263 7952 0.000000 0.000000
6 -1.757812 30.0 1514 6512 72704 4983 3843284298 8026 0.000000 0.000000
7 -1.691895 30.0 2063 5707 72347 4817 3843284333 7770 0.000000 0.000000
8 -1.625977 30.0 3071 5007 72657 4930 3843284368 8078 0.000000 0.000000
9 -1.560059 30.0 4088 4168 72938 4895 3843284403 8256 0.000000 0.000000
10 -1.494141 30.0 5006 3199 72933 4857 3843284439 8205 0.000000 0.000000
11 -1.439209 30.0 5761 2663 72709 4963 3843284474 8424 0.000000 0.000000
12 -1.373291 30.0 6337 2231 72363 5071 3843284509 8568 0.000000 0.000000
13 -1.307373 30.0 6413 2164 72612 5070 3843284544 8577 0.000000 0.000000
14 -1.230469 30.0 6085 2559 72488 4889 3843284579 8644 0.000000 0.000000
15 -1.164551 30.0 5229 3238 72924 4949 3843284614 8467 0.000000 0.000000
16 -1.109619 30.0 4351 3997 72351 4889 3843284650 8348 0.000000 0.000000
17 -1.065674 30.0 3587 4527 72550 4849 3843284685 8114 0.000000 0.000000
18 -0.999756 30.0 2630 5536 72299 4957 3843284720 8166 0.000000 0.000000
19 -0.911865 30.0 1698 5959 72606 4886 3843284755 7657 0.000000 0.000000
20 -0.867920 30.0 1279 6642 72576 4973 3843284791 7921 0.000000 0.000000
21 -0.791016 30.0 1128 6672 72956 4979 3843284826 7800 0.000000 0.000000
22 -0.725098 30.0 1490 6598 72288 4780 3843284861 8088 0.000000 0.000000
23 -0.659180 30.0 2264 5791 72721 4866 3843284896 8055 0.000000 0.000000
24 -0.604248 30.0 3269 4847 72304 4842 3843284932 8116 0.000000 0.000000
25 -0.527344 30.0 4273 3968 72351 4997 3843284967 8241 0.000000 0.000000
26 -0.472412 30.0 5085 3290 72901 4975 3843285002 8375 0.000000 0.000000
27 -0.395508 30.0 5979 2442 72681 4843 3843285037 8421 0.000000 0.000000
28 -0.340576 30.0 6389 2177 72265 4994 3843285072 8566 0.000000 0.000000
29 -0.274658 30.0 6302 2290 72909 5152 3843285107 8592 0.000000 0.000000
30 -0.186768 30.0 5667 2784 72523 4845 3843285143 8451 0.000000 0.000000
