# ps_pos exposure_time(s) O-Beam H-Beam Monitor AUX-Beam time(s) O+H+AUX encod1 encod2
1 -1.823730 30.0 1214 6727 72906 4900 3843285184 7941 0.000000 0.000000
2 -1.790771 30.0 1320 6544 72664 4828 3843285219 7864 0.000000 0.000000
3 -1.724854 30.0 1726 6054 72536 4890 3843285254 7780 0.000000 0.000000
4 -1.658935 30.0 2580 5412 72896 4869 3843285290 7992 0.000000 0.000000
5 -1.614990 30.0 3373 4735 72436 4828 3843285325 8108 0.000000 0.000000
6 -1.527100 30.0 4306 4000 73227 4879 3843285360 8306 0.000000 0.000000
7 -1.494141 30.0 5287 3188 72425 4897 3843285395 8475 0.000000 0.000000
8 -1.395264 30.0 6023 2504 72462 4929 3843285430 8527 0.000000 0.000000
9 -1.351318 30.0 6402 2262 72878 4978 3843285466 8664 0.000000 0.000000
10 -1.274414 30.0 6150 2371 72360 5045 3843285501 8521 0.000000 0.000000
11 -1.197510 30.0 5603 2932 72893 4912 3843285536 8535 0.000000 0.000000
12 -1.153565 30.0 4887 3496 72597 4874 3843285571 8383 0.000000 0.000000
13 -1.065674 30.0 3745 4579 72414 4876 3843285606 8324 0.000000 0.000000
14 -0.999756 30.0 2693 5379 72015 4942 3843285642 8072 0.000000 0.000000
15 -0.933838 30.0 1856 5893 72703 4870 3843285677 7749 0.000000 0.000000
16 -0.889893 30.0 1391 6506 73095 4871 3843285712 7897 0.000000 0.000000
17 -0.834961 30.0 1245 6582 72534 4857 3843285747 7827 0.000000 0.000000
18 -0.758057 30.0 1444 6487 72738 4945 3843285782 7931 0.000000 0.000000
19 -0.670166 30.0 2119 5857 72634 4922 3843285818 7976 0.000000 0.000000
20 -0.615234 30.0 2923 5109 72266 4865 3843285853 8032 0.000000 0.000000
21 -0.560303 30.0 3805 4305 72971 4949 3843285888 8110 0.000000 0.000000
22 -0.494385 30.0 4889 3353 72415 4845 3843285923 8242 0.000000 0.000000
23 -0.450439 30.0 5626 2880 72551 4987 3843285958 8506 0.000000 0.000000
24 -0.362549 30.0 6136 2449 72555 4841 3843285994 8585 0.000000 0.000000
25 -0.296631 30.0 6240 2231 72377 4934 3843286029 8471 0.000000 0.000000
26 -0.241699 30.0 6067 2330 72845 4978 3843286064 8397 0.000000 0.000000
27 -0.164795 30.0 5415 2958 72071 5038 3843286099 8373 0.000000 0.000000
28 -0.109863 30.0 4703 3573 72484 4935 3843286135 8276 0.000000 0.000000
29 -0.043945 30.0 3646 4357 72915 4901 3843286170 8003 0.000000 0.000000
30 0.032959 30.0 2901 5037 72399 4878 3843286205 7938 0.000000 0.000000
