# ps_pos exposure_time(s) O-Beam H-Beam Monitor AUX-Beam time(s) O+H+AUX encod1 encod2
1 -1.241455 30.0 1437 2256 73924 12276 3844019533 3693 0.000000 0.000000
2 -1.164551 30.0 1654 2360 74004 12104 3844019568 4014 0.000000 0.000000
3 -1.120605 30.0 2082 2237 73528 11314 3844019603 4319 0.000000 0.000000
4 -1.065674 30.0 2655 2196 73864 10468 3844019639 4851 0.000000 0.000000
5 -0.988769 30.0 3533 2223 74345 9061 3844019674 5756 0.000000 0.000000
6 -0.922852 30.0 4577 2238 73445 7641 3844019709 6815 0.000000 0.000000
7 -0.856934 30.0 5189 2308 73600 6420 3844019744 7497 0.000000 0.000000
8 -0.791016 30.0 5866 2300 73723 5288 3844019779 8166 0.000000 0.000000
9 -0.747070 30.0 6028 2260 73969 4864 3844019815 8288 0.000000 0.000000
10 -0.681152 30.0 6046 2361 73816 4991 3844019850 8407 0.000000 0.000000
11 -0.615234 30.0 5706 2225 73926 5600 3844019885 7931 0.000000 0.000000
12 -0.549316 30.0 5066 2292 73886 6555 3844019920 7358 0.000000 0.000000
13 -0.494385 30.0 4222 2268 73792 7857 3844019955 6490 0.000000 0.000000
14 -0.439453 30.0 3425 2310 73778 9078 3844019991 5735 0.000000 0.000000
15 -0.362549 30.0 2490 2303 73554 10418 3844020026 4793 0.000000 0.000000
16 -0.296631 30.0 1975 2245 74122 11515 3844020061 4220 0.000000 0.000000
17 -0.230713 30.0 1544 2203 73868 12243 3844020096 3747 0.000000 0.000000
18 -0.175781 30.0 1537 2252 73783 12173 3844020131 3789 0.000000 0.000000
19 -0.109863 30.0 1759 2205 73701 11709 3844020167 3964 0.000000 0.000000
20 -0.043945 30.0 2438 2284 73981 10576 3844020202 4722 0.000000 0.000000
21 0.032959 30.0 3392 2254 73675 9416 3844020237 5646 0.000000 0.000000
22 0.087891 30.0 4159 2290 73786 8180 3844020272 6449 0.000000 0.000000
23 0.142822 30.0 4929 2291 73959 6666 3844020307 7220 0.000000 0.000000
24 0.208740 30.0 5700 2254 73961 5433 3844020343 7954 0.000000 0.000000
25 0.274658 30.0 6178 2193 73297 5161 3844020378 8371 0.000000 0.000000
26 0.351562 30.0 6115 2264 73139 4914 3844020413 8379 0.000000 0.000000
27 0.428467 30.0 5744 2247 73606 5521 3844020448 7991 0.000000 0.000000
28 0.483398 30.0 5175 2209 73959 6533 3844020483 7384 0.000000 0.000000
29 0.538330 30.0 4300 2259 73455 7753 3844020519 6559 0.000000 0.000000
30 0.604248 30.0 3454 2245 73823 9021 3844020554 5699 0.000000 0.000000
31 0.670166 30.0 2492 2262 73731 10615 3844020589 4754 0.000000 0.000000
32 0.747070 30.0 1862 2223 73775 11623 3844020624 4085 0.000000 0.000000
33 0.812988 30.0 1582 2257 73638 12102 3844020660 3839 0.000000 0.000000
34 0.878906 30.0 1565 2208 73897 12028 3844020695 3773 0.000000 0.000000
35 0.944824 30.0 1944 2335 73483 11136 3844020730 4279 0.000000 0.000000
36 1.010742 30.0 2743 2267 73799 10516 3844020765 5010 0.000000 0.000000
37 1.065674 30.0 3510 2309 73838 8942 3844020800 5819 0.000000 0.000000
38 1.142578 30.0 4344 2301 74122 7474 3844020836 6645 0.000000 0.000000
39 1.197510 30.0 5248 2265 73661 6214 3844020871 7513 0.000000 0.000000
40 1.274414 30.0 5794 2220 73675 5250 3844020906 8014 0.000000 0.000000
41 1.329346 30.0 6009 2243 73922 4999 3844020941 8252 0.000000 0.000000
42 1.395264 30.0 5880 2207 73585 5214 3844020977 8087 0.000000 0.000000
43 1.461182 30.0 5572 2182 73694 5549 3844021012 7754 0.000000 0.000000
44 1.516113 30.0 4896 2198 74062 6584 3844021047 7094 0.000000 0.000000
45 1.582031 30.0 4210 2212 73477 7763 3844021082 6422 0.000000 0.000000
46 1.647949 30.0 3406 2172 74199 9188 3844021117 5578 0.000000 0.000000
47 1.713867 30.0 2550 2315 73778 10507 3844021153 4865 0.000000 0.000000
48 1.779785 30.0 1878 2244 73873 11569 3844021188 4122 0.000000 0.000000
