# ps_pos exposure_time(s) O-Beam H-Beam Monitor AUX-Beam time(s) O+H+AUX encod1 encod2
1 -0.043945 30.0 1155 5520 71659 5971 3843352545 6675 0.000000 0.000000
2 0.021973 30.0 1198 4888 71256 7477 3843352580 6086 0.000000 0.000000
3 0.076904 30.0 1176 4194 71955 8804 3843352615 5370 0.000000 0.000000
4 0.153809 30.0 1229 3455 71197 10159 3843352650 4684 0.000000 0.000000
5 0.219727 30.0 1222 2753 71629 11351 3843352686 3975 0.000000 0.000000
6 0.285645 30.0 1217 2424 71517 12080 3843352721 3641 0.000000 0.000000
7 0.340576 30.0 1309 2348 71679 12286 3843352756 3657 0.000000 0.000000
8 0.395508 30.0 1270 2549 71557 11759 3843352791 3819 0.000000 0.000000
9 0.461426 30.0 1263 2963 71165 10983 3843352826 4226 0.000000 0.000000
10 0.538330 30.0 1167 3620 71607 9717 3843352862 4787 0.000000 0.000000
11 0.604248 30.0 1221 4455 71122 8304 3843352897 5676 0.000000 0.000000
12 0.659180 30.0 1212 5322 71460 6867 3843352932 6534 0.000000 0.000000
13 0.725098 30.0 1260 6011 71545 5424 3843352967 7271 0.000000 0.000000
14 0.802002 30.0 1124 6280 71810 4874 3843353002 7404 0.000000 0.000000
15 0.878906 30.0 1083 6376 71591 4788 3843353038 7459 0.000000 0.000000
16 0.944824 30.0 1096 6054 71412 5335 3843353073 7150 0.000000 0.000000
17 1.010742 30.0 1137 5610 71239 6323 3843353108 6747 0.000000 0.000000
18 1.076660 30.0 1144 5023 71526 7720 3843353143 6167 0.000000 0.000000
19 1.142578 30.0 1168 4021 71695 9380 3843353178 5189 0.000000 0.000000
20 1.197510 30.0 1177 3325 71450 10248 3843353214 4502 0.000000 0.000000
21 1.252441 30.0 1207 2781 71830 11397 3843353249 3988 0.000000 0.000000
22 1.329346 30.0 1229 2388 71540 11929 3843353284 3617 0.000000 0.000000
23 1.384277 30.0 1186 2327 71673 11971 3843353319 3513 0.000000 0.000000
24 1.450195 30.0 1310 2620 71655 11497 3843353354 3930 0.000000 0.000000
25 1.527100 30.0 1219 3232 71622 10323 3843353390 4451 0.000000 0.000000
26 1.593018 30.0 1210 4056 71682 9065 3843353425 5266 0.000000 0.000000
27 1.658935 30.0 1240 4755 71319 7756 3843353460 5995 0.000000 0.000000
28 1.713867 30.0 1237 5377 71887 6360 3843353495 6614 0.000000 0.000000
29 1.779785 30.0 1156 6072 71644 5413 3843353530 7228 0.000000 0.000000
30 1.878662 30.0 1187 6242 71516 4763 3843353566 7429 0.000000 0.000000
