# ps_pos exposure_time(s) O-Beam H-Beam Monitor AUX-Beam time(s) O+H+AUX encod1 encod2
1 -0.296631 30.0 1318 5892 71601 5531 3843336187 7210 0.000000 0.000000
2 -0.241699 30.0 1165 6476 72040 4987 3843336224 7641 0.000000 0.000000
3 -0.175781 30.0 1143 6449 71211 4765 3843336260 7592 0.000000 0.000000
4 -0.109863 30.0 1074 6289 71290 5263 3843336296 7363 0.000000 0.000000
5 -0.043945 30.0 1203 5779 71306 6254 3843336332 6982 0.000000 0.000000
6 0.032959 30.0 1315 4828 71510 7750 3843336369 6143 0.000000 0.000000
7 0.087891 30.0 1392 4008 71677 9045 3843336405 5400 0.000000 0.000000
8 0.153809 30.0 1438 3198 71222 10355 3843336441 4636 0.000000 0.000000
9 0.219727 30.0 1516 2504 71658 11393 3843336477 4020 0.000000 0.000000
10 0.285645 30.0 1514 2295 71570 12080 3843336513 3809 0.000000 0.000000
11 0.329590 30.0 1314 2205 71619 12105 3843336550 3519 0.000000 0.000000
12 0.406494 30.0 1221 2627 71654 11703 3843336586 3848 0.000000 0.000000
13 0.461426 30.0 1175 3039 71750 10865 3843336622 4214 0.000000 0.000000
14 0.527344 30.0 1168 3850 71953 9758 3843336658 5018 0.000000 0.000000
15 0.593262 30.0 937 4586 71514 8447 3843336694 5523 0.000000 0.000000
16 0.648193 30.0 1019 5392 71387 7008 3843336731 6411 0.000000 0.000000
17 0.714111 30.0 1035 5976 71339 5856 3843336767 7011 0.000000 0.000000
18 0.769043 30.0 1110 6213 72101 4971 3843336803 7323 0.000000 0.000000
19 0.834961 30.0 1153 6495 71841 4773 3843336839 7648 0.000000 0.000000
20 0.911865 30.0 1150 6322 71212 5126 3843336875 7472 0.000000 0.000000
21 0.988769 30.0 1344 5438 70813 6020 3843336912 6782 0.000000 0.000000
22 1.054688 30.0 1279 4891 71416 7483 3843336948 6170 0.000000 0.000000
23 1.120605 30.0 1240 3910 71253 9352 3843336984 5150 0.000000 0.000000
24 1.208496 30.0 1289 3147 71454 10792 3843337020 4436 0.000000 0.000000
25 1.274414 30.0 1313 2550 71392 11647 3843337057 3863 0.000000 0.000000
26 1.329346 30.0 1389 2254 71269 12154 3843337093 3643 0.000000 0.000000
27 1.395264 30.0 1363 2346 71303 11768 3843337129 3709 0.000000 0.000000
28 1.461182 30.0 1510 2602 71266 11236 3843337165 4112 0.000000 0.000000
29 1.538086 30.0 1417 3254 70898 10189 3843337201 4671 0.000000 0.000000
30 1.593018 30.0 1409 4042 71259 8789 3843337238 5451 0.000000 0.000000
