# ps_pos exposure_time(s) O-Beam H-Beam Monitor AUX-Beam time(s) O+H+AUX encod1 encod2
1 -1.219482 30.0 1122 6581 71517 4708 3843335094 7703 0.000000 0.000000
2 -1.164551 30.0 1097 6380 72197 5169 3843335130 7477 0.000000 0.000000
3 -1.098633 30.0 1042 5745 71046 6084 3843335166 6787 0.000000 0.000000
4 -1.032715 30.0 1025 5195 71547 7423 3843335203 6220 0.000000 0.000000
5 -0.966797 30.0 971 4251 71203 8979 3843335239 5222 0.000000 0.000000
6 -0.900879 30.0 1143 3492 71476 10294 3843335275 4635 0.000000 0.000000
7 -0.812988 30.0 1317 2876 71486 11255 3843335311 4193 0.000000 0.000000
8 -0.769043 30.0 1320 2382 71315 12115 3843335347 3702 0.000000 0.000000
9 -0.692139 30.0 1422 2223 71375 12087 3843335384 3645 0.000000 0.000000
10 -0.637207 30.0 1424 2405 71658 11842 3843335420 3829 0.000000 0.000000
11 -0.571289 30.0 1675 2821 71342 10896 3843335456 4496 0.000000 0.000000
12 -0.505371 30.0 1576 3570 71551 9753 3843335492 5146 0.000000 0.000000
13 -0.439453 30.0 1614 4352 71795 8169 3843335528 5966 0.000000 0.000000
14 -0.373535 30.0 1504 5190 71681 6755 3843335565 6694 0.000000 0.000000
15 -0.296631 30.0 1409 5957 71744 5358 3843335601 7366 0.000000 0.000000
16 -0.230713 30.0 1271 6276 71174 5018 3843335637 7547 0.000000 0.000000
17 -0.186768 30.0 1153 6486 71717 4825 3843335673 7639 0.000000 0.000000
18 -0.109863 30.0 1047 6355 71126 5382 3843335709 7402 0.000000 0.000000
19 -0.043945 30.0 934 5798 71682 6466 3843335746 6732 0.000000 0.000000
20 0.021973 30.0 998 4959 71374 7625 3843335782 5957 0.000000 0.000000
21 0.087891 30.0 1061 4170 70958 8959 3843335818 5231 0.000000 0.000000
22 0.142822 30.0 1171 3359 71032 10365 3843335854 4530 0.000000 0.000000
23 0.208740 30.0 1293 2742 71819 11286 3843335890 4035 0.000000 0.000000
24 0.274658 30.0 1369 2330 71681 12141 3843335927 3699 0.000000 0.000000
25 0.329590 30.0 1437 2238 71455 12247 3843335963 3675 0.000000 0.000000
26 0.406494 30.0 1366 2432 71408 11976 3843335999 3798 0.000000 0.000000
27 0.461426 30.0 1399 2934 71110 11107 3843336035 4333 0.000000 0.000000
28 0.538330 30.0 1367 3592 71143 9688 3843336071 4959 0.000000 0.000000
29 0.593262 30.0 1253 4384 71530 8265 3843336108 5637 0.000000 0.000000
30 0.648193 30.0 1205 5220 71279 6946 3843336144 6425 0.000000 0.000000
