# ps_pos exposure_time(s) O-Beam H-Beam Monitor AUX-Beam time(s) O+H+AUX encod1 encod2
1 0.054932 30.0 1456 4286 71238 8419 3843337282 5742 0.000000 0.000000
2 0.120850 30.0 1567 3332 71337 9817 3843337318 4899 0.000000 0.000000
3 0.186768 30.0 1545 2733 71271 10958 3843337354 4278 0.000000 0.000000
4 0.241699 30.0 1487 2312 70674 11838 3843337390 3799 0.000000 0.000000
5 0.307617 30.0 1463 2229 71367 12144 3843337427 3692 0.000000 0.000000
6 0.384522 30.0 1319 2503 71385 12094 3843337463 3822 0.000000 0.000000
7 0.439453 30.0 1155 2919 71416 11151 3843337499 4074 0.000000 0.000000
8 0.494385 30.0 1044 3564 71535 10351 3843337536 4608 0.000000 0.000000
9 0.560303 30.0 918 4320 71571 8632 3843337572 5238 0.000000 0.000000
10 0.637207 30.0 976 5169 71393 7399 3843337608 6145 0.000000 0.000000
11 0.692139 30.0 969 5841 71446 6234 3843337644 6810 0.000000 0.000000
12 0.758057 30.0 1086 6219 71501 5198 3843337680 7305 0.000000 0.000000
13 0.812988 30.0 1167 6235 71536 4771 3843337717 7402 0.000000 0.000000
14 0.878906 30.0 1429 6225 71392 4824 3843337753 7654 0.000000 0.000000
15 0.933838 30.0 1560 5698 71621 5477 3843337789 7258 0.000000 0.000000
16 1.010742 30.0 1774 4933 71334 6496 3843337825 6707 0.000000 0.000000
17 1.076660 30.0 1766 4259 71526 7884 3843337861 6025 0.000000 0.000000
18 1.131592 30.0 1855 3302 71417 9431 3843337898 5157 0.000000 0.000000
19 1.197510 30.0 1814 2785 71656 10615 3843337934 4599 0.000000 0.000000
20 1.252441 30.0 1794 2361 71423 11525 3843337970 4155 0.000000 0.000000
21 1.318359 30.0 1547 2111 71292 11924 3843338006 3658 0.000000 0.000000
22 1.395264 30.0 1304 2392 71757 12237 3843338042 3696 0.000000 0.000000
23 1.461182 30.0 1064 2772 71227 11542 3843338079 3836 0.000000 0.000000
24 1.516113 30.0 998 3680 71369 10459 3843338115 4678 0.000000 0.000000
25 1.593018 30.0 883 4367 71359 9180 3843338151 5250 0.000000 0.000000
26 1.647949 30.0 854 5131 71530 7762 3843338187 5985 0.000000 0.000000
27 1.713867 30.0 949 5604 71242 6407 3843338223 6553 0.000000 0.000000
28 1.768799 30.0 1125 5948 71149 5592 3843338260 7073 0.000000 0.000000
29 1.834717 30.0 1478 6079 71712 4977 3843338296 7557 0.000000 0.000000
30 1.889648 30.0 1757 5790 71319 4775 3843338332 7547 0.000000 0.000000
