# ps_pos exposure_time(s) O-Beam H-Beam Monitor AUX-Beam time(s) O+H+AUX encod1 encod2
1 -1.889648 30.0 1546 2317 73924 12531 3844024180 3863 0.000000 0.000000
2 -1.823730 30.0 1593 2471 74472 12080 3844024216 4064 0.000000 0.000000
3 -1.746826 30.0 1580 3020 73882 11152 3844024252 4600 0.000000 0.000000
4 -1.680908 30.0 1594 3504 73585 10077 3844024288 5098 0.000000 0.000000
5 -1.625977 30.0 1518 4102 73522 8743 3844024324 5620 0.000000 0.000000
6 -1.560059 30.0 1348 4993 73508 7453 3844024361 6341 0.000000 0.000000
7 -1.516113 30.0 1281 5793 73715 6285 3844024397 7074 0.000000 0.000000
8 -1.461182 30.0 1221 6227 73438 5538 3844024433 7448 0.000000 0.000000
9 -1.384277 30.0 1256 6476 73607 5046 3844024469 7732 0.000000 0.000000
10 -1.329346 30.0 1339 6374 73412 5015 3844024505 7713 0.000000 0.000000
11 -1.252441 30.0 1298 5975 73718 5748 3844024542 7273 0.000000 0.000000
12 -1.186523 30.0 1314 5294 73493 6787 3844024578 6608 0.000000 0.000000
13 -1.131592 30.0 1471 4476 73988 8086 3844024614 5947 0.000000 0.000000
14 -1.065674 30.0 1500 3858 73485 9733 3844024650 5358 0.000000 0.000000
15 -0.999756 30.0 1473 3074 73271 10977 3844024686 4547 0.000000 0.000000
16 -0.933838 30.0 1668 2492 73776 11803 3844024723 4160 0.000000 0.000000
17 -0.867920 30.0 1507 2295 73630 12378 3844024759 3802 0.000000 0.000000
18 -0.780029 30.0 1493 2398 74147 12146 3844024795 3891 0.000000 0.000000
19 -0.725098 30.0 1425 2824 73394 11597 3844024831 4249 0.000000 0.000000
20 -0.670166 30.0 1303 3485 73829 10461 3844024867 4788 0.000000 0.000000
21 -0.571289 30.0 1389 4468 73769 8580 3844024904 5857 0.000000 0.000000
22 -0.527344 30.0 1219 5196 73881 7410 3844024940 6415 0.000000 0.000000
23 -0.472412 30.0 1184 5993 73161 6142 3844024976 7177 0.000000 0.000000
24 -0.384522 30.0 1259 6423 73613 5116 3844025012 7682 0.000000 0.000000
25 -0.329590 30.0 1208 6543 73263 4939 3844025048 7751 0.000000 0.000000
26 -0.263672 30.0 1290 6344 73373 5248 3844025085 7634 0.000000 0.000000
27 -0.197754 30.0 1338 5816 74110 6147 3844025121 7154 0.000000 0.000000
28 -0.131836 30.0 1422 4976 73570 7267 3844025157 6398 0.000000 0.000000
29 -0.054932 30.0 1445 4038 73602 8937 3844025193 5483 0.000000 0.000000
30 0.010986 30.0 1414 3564 73558 10478 3844025229 4978 0.000000 0.000000
31 0.054932 30.0 1580 2727 73296 11311 3844025266 4307 0.000000 0.000000
32 0.120850 30.0 1501 2404 73459 11858 3844025302 3905 0.000000 0.000000
33 0.186768 30.0 1456 2204 73894 12254 3844025338 3660 0.000000 0.000000
34 0.252686 30.0 1469 2344 73539 12298 3844025374 3813 0.000000 0.000000
35 0.318603 30.0 1468 2964 73617 11531 3844025410 4432 0.000000 0.000000
36 0.384522 30.0 1455 3637 73429 10219 3844025447 5092 0.000000 0.000000
37 0.439453 30.0 1237 4447 73598 8898 3844025483 5684 0.000000 0.000000
38 0.505371 30.0 1167 5190 73563 7471 3844025519 6357 0.000000 0.000000
39 0.560303 30.0 1057 5864 73906 6315 3844025555 6921 0.000000 0.000000
40 0.615234 30.0 1239 6231 73764 5432 3844025591 7470 0.000000 0.000000
41 0.692139 30.0 1230 6428 73377 4990 3844025628 7658 0.000000 0.000000
42 0.758057 30.0 1329 6288 73507 5211 3844025664 7617 0.000000 0.000000
43 0.834961 30.0 1348 5733 74269 6057 3844025700 7081 0.000000 0.000000
44 0.900879 30.0 1416 5133 74168 7262 3844025736 6549 0.000000 0.000000
45 0.955811 30.0 1450 4303 73278 8712 3844025772 5753 0.000000 0.000000
46 1.021729 30.0 1674 3460 73703 10227 3844025809 5134 0.000000 0.000000
47 1.087646 30.0 1528 2927 73512 11308 3844025845 4455 0.000000 0.000000
48 1.153565 30.0 1569 2373 73604 11974 3844025881 3942 0.000000 0.000000
