# ps_pos exposure_time(s) O-Beam H-Beam Monitor AUX-Beam time(s) O+H+AUX encod1 encod2
1 -1.263428 30.0 6146 2296 73726 5077 3844022011 8442 0.000000 0.000000
2 -1.197510 30.0 6063 2366 73802 5053 3844022046 8429 0.000000 0.000000
3 -1.131592 30.0 5641 2806 73847 5054 3844022081 8447 0.000000 0.000000
4 -1.065674 30.0 4819 3592 73735 5095 3844022117 8411 0.000000 0.000000
5 -1.010742 30.0 3825 4446 73813 5076 3844022152 8271 0.000000 0.000000
6 -0.944824 30.0 2714 5222 73760 5039 3844022187 7936 0.000000 0.000000
7 -0.856934 30.0 2014 6118 73660 4977 3844022222 8132 0.000000 0.000000
8 -0.802002 30.0 1486 6417 73627 5048 3844022257 7903 0.000000 0.000000
9 -0.747070 30.0 1281 6588 73590 5059 3844022293 7869 0.000000 0.000000
10 -0.681152 30.0 1454 6441 74376 5003 3844022328 7895 0.000000 0.000000
11 -0.604248 30.0 2073 5667 73756 5193 3844022363 7740 0.000000 0.000000
12 -0.538330 30.0 2848 5130 73755 5090 3844022398 7978 0.000000 0.000000
13 -0.472412 30.0 3925 4244 73599 4958 3844022433 8169 0.000000 0.000000
14 -0.395508 30.0 4953 3504 73384 5118 3844022469 8457 0.000000 0.000000
15 -0.340576 30.0 5568 2708 73758 4925 3844022504 8276 0.000000 0.000000
16 -0.274658 30.0 5949 2371 73597 5078 3844022539 8320 0.000000 0.000000
17 -0.208740 30.0 6235 2310 73534 5128 3844022574 8545 0.000000 0.000000
18 -0.164795 30.0 6046 2503 73914 5061 3844022609 8549 0.000000 0.000000
19 -0.087891 30.0 5317 3060 73973 5192 3844022645 8377 0.000000 0.000000
20 -0.032959 30.0 4604 3645 73502 5052 3844022680 8249 0.000000 0.000000
21 0.032959 30.0 3699 4339 73993 4984 3844022715 8038 0.000000 0.000000
22 0.098877 30.0 2815 5188 73718 5049 3844022750 8003 0.000000 0.000000
23 0.153809 30.0 2162 5744 74138 5064 3844022785 7906 0.000000 0.000000
24 0.208740 30.0 1621 6141 74011 5019 3844022821 7762 0.000000 0.000000
25 0.263672 30.0 1276 6676 74002 5036 3844022856 7952 0.000000 0.000000
26 0.318603 30.0 1275 6655 73942 4969 3844022891 7930 0.000000 0.000000
27 0.395508 30.0 1511 6321 74434 5101 3844022926 7832 0.000000 0.000000
28 0.450439 30.0 2276 5623 73771 4924 3844022961 7899 0.000000 0.000000
29 0.527344 30.0 3287 4700 74319 5037 3844022997 7987 0.000000 0.000000
30 0.593262 30.0 4113 3983 73616 4968 3844023032 8096 0.000000 0.000000
31 0.648193 30.0 5109 3212 73910 5160 3844023067 8321 0.000000 0.000000
32 0.714111 30.0 5830 2479 73521 5008 3844023102 8309 0.000000 0.000000
33 0.780029 30.0 6180 2273 73968 4931 3844023137 8453 0.000000 0.000000
34 0.856934 30.0 6100 2404 73996 4916 3844023173 8504 0.000000 0.000000
35 0.933838 30.0 5662 2805 73713 5131 3844023208 8467 0.000000 0.000000
36 0.988769 30.0 4776 3495 73341 5052 3844023243 8271 0.000000 0.000000
37 1.065674 30.0 3705 4539 73873 4934 3844023278 8244 0.000000 0.000000
38 1.120605 30.0 2759 5180 73961 4980 3844023313 7939 0.000000 0.000000
39 1.208496 30.0 1893 6035 73612 5089 3844023349 7928 0.000000 0.000000
40 1.263428 30.0 1349 6424 73820 4967 3844023384 7773 0.000000 0.000000
41 1.340332 30.0 1177 6645 73717 5057 3844023419 7822 0.000000 0.000000
42 1.406250 30.0 1527 6462 73530 5033 3844023454 7989 0.000000 0.000000
43 1.472168 30.0 2075 5942 73797 5054 3844023489 8017 0.000000 0.000000
44 1.538086 30.0 2967 5229 73670 4981 3844023525 8196 0.000000 0.000000
45 1.593018 30.0 3783 4467 73987 5031 3844023560 8250 0.000000 0.000000
46 1.647949 30.0 4585 3566 74308 5050 3844023595 8151 0.000000 0.000000
47 1.713867 30.0 5483 2894 73684 4999 3844023630 8377 0.000000 0.000000
48 1.779785 30.0 6054 2350 73867 5097 3844023665 8404 0.000000 0.000000
