# ps_pos exposure_time(s) O-Beam H-Beam Monitor AUX-Beam time(s) O+H+AUX encod1 encod2
1 -1.329346 30.0 5901 2134 72008 4642 3843583247 8035 0.000000 0.000000
2 -1.285400 30.0 6061 2219 72041 4632 3843583282 8280 0.000000 0.000000
3 -1.219482 30.0 5402 2690 72358 4753 3843583317 8092 0.000000 0.000000
4 -1.142578 30.0 4602 3402 72257 4660 3843583352 8004 0.000000 0.000000
5 -1.087646 30.0 3620 4351 72105 4704 3843583388 7971 0.000000 0.000000
6 -1.010742 30.0 2661 5100 71626 4590 3843583423 7761 0.000000 0.000000
7 -0.944824 30.0 1837 5923 72036 4440 3843583458 7760 0.000000 0.000000
8 -0.878906 30.0 1317 6177 71900 4699 3843583493 7494 0.000000 0.000000
9 -0.823975 30.0 1129 6542 71738 4731 3843583528 7671 0.000000 0.000000
10 -0.769043 30.0 1357 6221 71819 4703 3843583563 7578 0.000000 0.000000
11 -0.703125 30.0 1856 5910 72085 4622 3843583599 7766 0.000000 0.000000
12 -0.615234 30.0 2801 5043 71997 4661 3843583634 7844 0.000000 0.000000
13 -0.560303 30.0 3626 4222 71662 4663 3843583669 7848 0.000000 0.000000
14 -0.505371 30.0 4545 3485 71909 4604 3843583704 8030 0.000000 0.000000
15 -0.439453 30.0 5446 2728 71953 4733 3843583740 8174 0.000000 0.000000
16 -0.395508 30.0 5894 2239 71932 4730 3843583775 8133 0.000000 0.000000
17 -0.285645 30.0 6048 2085 72109 4758 3843583810 8133 0.000000 0.000000
18 -0.219727 30.0 5732 2437 71822 4582 3843583845 8169 0.000000 0.000000
19 -0.153809 30.0 5226 2834 72196 4638 3843583880 8060 0.000000 0.000000
20 -0.098877 30.0 4295 3746 71624 4442 3843583916 8041 0.000000 0.000000
21 0.000000 30.0 3089 4768 71723 4664 3843583951 7857 0.000000 0.000000
22 0.054932 30.0 2130 5493 72167 4577 3843583986 7623 0.000000 0.000000
23 0.153809 30.0 1420 6064 72012 4487 3843584021 7484 0.000000 0.000000
24 0.197754 30.0 1172 6486 72052 4488 3843584056 7658 0.000000 0.000000
25 0.263672 30.0 1269 6442 72340 4622 3843584092 7711 0.000000 0.000000
26 0.329590 30.0 1776 5903 72176 4632 3843584127 7679 0.000000 0.000000
27 0.373535 30.0 2150 5521 72069 4627 3843584162 7671 0.000000 0.000000
28 0.439453 30.0 3007 4843 71936 4630 3843584197 7850 0.000000 0.000000
29 0.494385 30.0 4121 3869 71925 4688 3843584233 7990 0.000000 0.000000
30 0.571289 30.0 5011 3209 71859 4606 3843584268 8220 0.000000 0.000000
31 0.626221 30.0 5551 2447 71682 4519 3843584303 7998 0.000000 0.000000
32 0.703125 30.0 6215 2259 71719 4701 3843584338 8474 0.000000 0.000000
