# ps_pos exposure_time(s) O-Beam H-Beam Monitor AUX-Beam time(s) O+H+AUX encod1 encod2
1 -1.076660 30.0 3655 4159 71858 4664 3843585512 7814 0.000000 0.000000
2 -1.010742 30.0 2661 4940 71338 4603 3843585547 7601 0.000000 0.000000
3 -0.933838 30.0 1754 5928 71947 4619 3843585582 7682 0.000000 0.000000
4 -0.867920 30.0 1283 6260 71919 4628 3843585617 7543 0.000000 0.000000
5 -0.812988 30.0 1165 6446 71749 4477 3843585653 7611 0.000000 0.000000
6 -0.736084 30.0 1341 6080 72216 4596 3843585688 7421 0.000000 0.000000
7 -0.681152 30.0 2113 5565 71986 4411 3843585723 7678 0.000000 0.000000
8 -0.604248 30.0 3079 4698 71910 4661 3843585758 7777 0.000000 0.000000
9 -0.516357 30.0 4388 3499 71637 4551 3843585793 7887 0.000000 0.000000
10 -0.450439 30.0 5255 2869 71929 4789 3843585828 8124 0.000000 0.000000
11 -0.373535 30.0 5774 2278 71797 4614 3843585864 8052 0.000000 0.000000
12 -0.329590 30.0 6225 2203 71840 4524 3843585899 8428 0.000000 0.000000
13 -0.252686 30.0 5922 2117 71667 4725 3843585934 8039 0.000000 0.000000
14 -0.186768 30.0 5389 2692 72148 4629 3843585969 8081 0.000000 0.000000
15 -0.120850 30.0 4497 3486 72301 4519 3843586004 7983 0.000000 0.000000
16 -0.043945 30.0 3467 4295 71803 4627 3843586040 7762 0.000000 0.000000
17 0.010986 30.0 2724 5080 71656 4630 3843586075 7804 0.000000 0.000000
18 0.109863 30.0 1770 5831 71681 4683 3843586110 7601 0.000000 0.000000
19 0.164795 30.0 1311 6161 72022 4723 3843586145 7472 0.000000 0.000000
20 0.208740 30.0 1141 6341 72212 4665 3843586180 7482 0.000000 0.000000
21 0.263672 30.0 1290 6405 71760 4616 3843586216 7695 0.000000 0.000000
22 0.351562 30.0 1797 5823 72063 4601 3843586251 7620 0.000000 0.000000
23 0.406494 30.0 2524 5113 71518 4567 3843586286 7637 0.000000 0.000000
24 0.461426 30.0 3520 4251 71598 4755 3843586321 7771 0.000000 0.000000
25 0.527344 30.0 4445 3680 71870 4612 3843586357 8125 0.000000 0.000000
26 0.604248 30.0 5263 2908 72104 4606 3843586392 8171 0.000000 0.000000
27 0.670166 30.0 5863 2190 71736 4627 3843586427 8053 0.000000 0.000000
28 0.736084 30.0 6111 2120 71995 4601 3843586462 8231 0.000000 0.000000
29 0.812988 30.0 5787 2334 72056 4652 3843586497 8121 0.000000 0.000000
30 0.856934 30.0 5344 2701 71707 4466 3843586533 8045 0.000000 0.000000
31 0.933838 30.0 4344 3667 72048 4514 3843586568 8011 0.000000 0.000000
32 1.010742 30.0 3379 4435 71680 4595 3843586603 7814 0.000000 0.000000
