# ps_pos exposure_time(s) O-Beam H-Beam Monitor AUX-Beam time(s) O+H+AUX encod1 encod2
1 -2.164307 30.0 5066 2964 93033 11383 3843103010 8030 0.000000 0.000000
2 -2.098389 30.0 4212 3551 93000 11277 3843103045 7763 0.000000 0.000000
3 -2.032471 30.0 3211 4519 93073 11433 3843103080 7730 0.000000 0.000000
4 -1.966553 30.0 2217 5244 93289 11713 3843103115 7461 0.000000 0.000000
5 -1.889648 30.0 1515 6049 93095 11565 3843103151 7564 0.000000 0.000000
6 -1.834717 30.0 1060 6306 92782 11603 3843103186 7366 0.000000 0.000000
7 -1.746826 30.0 942 6601 92887 11243 3843103221 7543 0.000000 0.000000
8 -1.680908 30.0 1241 6300 93550 11417 3843103256 7541 0.000000 0.000000
9 -1.625977 30.0 1834 5822 92982 11410 3843103292 7656 0.000000 0.000000
10 -1.549072 30.0 2830 4837 93161 11063 3843103327 7667 0.000000 0.000000
11 -1.494141 30.0 3647 4215 92849 11417 3843103362 7862 0.000000 0.000000
12 -1.417236 30.0 4624 3319 92686 11407 3843103397 7943 0.000000 0.000000
13 -1.351318 30.0 5275 2652 93146 11438 3843103433 7927 0.000000 0.000000
14 -1.296387 30.0 5482 2335 92868 11474 3843103468 7817 0.000000 0.000000
15 -1.219482 30.0 5527 2530 93473 11422 3843103503 8057 0.000000 0.000000
16 -1.142578 30.0 5038 2731 93313 11171 3843103538 7769 0.000000 0.000000
17 -1.076660 30.0 4258 3423 92714 11626 3843103574 7681 0.000000 0.000000
18 -1.010742 30.0 3354 4294 93336 11544 3843103609 7648 0.000000 0.000000
19 -0.955811 30.0 2553 5174 93181 11546 3843103644 7727 0.000000 0.000000
20 -0.889893 30.0 1680 5983 93470 11776 3843103680 7663 0.000000 0.000000
21 -0.812988 30.0 1142 6326 93227 11407 3843103715 7468 0.000000 0.000000
22 -0.747070 30.0 849 6590 93164 11491 3843103750 7439 0.000000 0.000000
23 -0.681152 30.0 1077 6390 92837 11467 3843103785 7467 0.000000 0.000000
24 -0.626221 30.0 1584 5975 92978 11504 3843103821 7559 0.000000 0.000000
25 -0.571289 30.0 2227 5330 92887 11582 3843103856 7557 0.000000 0.000000
26 -0.494385 30.0 3170 4379 92869 11225 3843103891 7549 0.000000 0.000000
27 -0.439453 30.0 4031 3585 92690 11404 3843103926 7616 0.000000 0.000000
28 -0.373535 30.0 4853 3032 92743 11479 3843103961 7885 0.000000 0.000000
29 -0.307617 30.0 5524 2541 93055 11503 3843103997 8065 0.000000 0.000000
30 -0.252686 30.0 5522 2407 93409 11409 3843104032 7929 0.000000 0.000000
