# ps_pos exposure_time(s) O-Beam H-Beam Monitor AUX-Beam time(s) O+H+AUX encod1 encod2
1 -1.647949 30.0 1475 6002 92879 11253 3843104073 7477 0.000000 0.000000
2 -1.593018 30.0 2177 5253 92835 11510 3843104109 7430 0.000000 0.000000
3 -1.527100 30.0 2947 4669 93230 11347 3843104144 7616 0.000000 0.000000
4 -1.461182 30.0 3847 3875 92885 11449 3843104179 7722 0.000000 0.000000
5 -1.395264 30.0 4852 3110 93116 11490 3843104214 7962 0.000000 0.000000
6 -1.340332 30.0 5289 2593 92761 11785 3843104250 7882 0.000000 0.000000
7 -1.285400 30.0 5533 2400 92800 11231 3843104285 7933 0.000000 0.000000
8 -1.219482 30.0 5393 2493 93527 11351 3843104320 7886 0.000000 0.000000
9 -1.131592 30.0 4899 2824 92439 11785 3843104355 7723 0.000000 0.000000
10 -1.076660 30.0 4249 3480 92894 11528 3843104391 7729 0.000000 0.000000
11 -0.999756 30.0 3351 4219 92998 11429 3843104426 7570 0.000000 0.000000
12 -0.944824 30.0 2340 5150 92894 11558 3843104461 7490 0.000000 0.000000
13 -0.867920 30.0 1533 5890 93404 11466 3843104496 7423 0.000000 0.000000
14 -0.802002 30.0 1066 6419 93200 11291 3843104532 7485 0.000000 0.000000
15 -0.747070 30.0 840 6376 92810 11464 3843104567 7216 0.000000 0.000000
16 -0.681152 30.0 1086 6225 93248 11593 3843104602 7311 0.000000 0.000000
17 -0.604248 30.0 1742 5724 93651 11368 3843104638 7466 0.000000 0.000000
18 -0.538330 30.0 2578 5016 93505 11327 3843104673 7594 0.000000 0.000000
19 -0.472412 30.0 3612 4040 93030 11509 3843104708 7652 0.000000 0.000000
20 -0.417480 30.0 4185 3475 93223 11649 3843104743 7660 0.000000 0.000000
21 -0.340576 30.0 4872 2855 93165 11640 3843104778 7727 0.000000 0.000000
22 -0.274658 30.0 5480 2314 92704 11522 3843104814 7794 0.000000 0.000000
23 -0.219727 30.0 5618 2402 92839 11153 3843104849 8020 0.000000 0.000000
24 -0.153809 30.0 5176 2498 93113 11328 3843104884 7674 0.000000 0.000000
25 -0.087891 30.0 4783 2910 93035 11428 3843104919 7693 0.000000 0.000000
26 -0.010986 30.0 3847 3858 92876 11418 3843104955 7705 0.000000 0.000000
27 0.054932 30.0 3009 4415 93378 11468 3843104990 7424 0.000000 0.000000
28 0.098877 30.0 2277 5142 93610 11425 3843105025 7419 0.000000 0.000000
29 0.164795 30.0 1525 5658 93466 11697 3843105060 7183 0.000000 0.000000
30 0.230713 30.0 1055 6167 92789 11586 3843105096 7222 0.000000 0.000000
