# ps_pos exposure_time(s) O-Beam H-Beam Monitor AUX-Beam time(s) O+H+AUX encod1 encod2
1 -1.889648 30.0 1670 6066 92865 11652 3843101945 7736 0.000000 0.000000
2 -1.823730 30.0 1055 6543 93346 11388 3843101981 7598 0.000000 0.000000
3 -1.768799 30.0 969 6558 92848 11455 3843102016 7527 0.000000 0.000000
4 -1.702881 30.0 1108 6638 93184 11447 3843102051 7746 0.000000 0.000000
5 -1.658935 30.0 1480 6189 92940 11602 3843102086 7669 0.000000 0.000000
6 -1.593018 30.0 2319 5586 93455 11598 3843102122 7905 0.000000 0.000000
7 -1.516113 30.0 3113 4651 92705 11317 3843102157 7764 0.000000 0.000000
8 -1.461182 30.0 4166 3771 92412 11418 3843102192 7937 0.000000 0.000000
9 -1.395264 30.0 5140 3065 93207 11347 3843102228 8205 0.000000 0.000000
10 -1.318359 30.0 5706 2547 92849 11228 3843102263 8253 0.000000 0.000000
11 -1.263428 30.0 5695 2384 92979 11569 3843102298 8079 0.000000 0.000000
12 -1.197510 30.0 5494 2566 93086 11413 3843102333 8060 0.000000 0.000000
13 -1.120605 30.0 4916 3160 93067 11424 3843102369 8076 0.000000 0.000000
14 -1.054688 30.0 4126 3737 93260 11434 3843102404 7863 0.000000 0.000000
15 -1.010742 30.0 3106 4594 93299 11505 3843102439 7700 0.000000 0.000000
16 -0.922852 30.0 2130 5604 92915 11164 3843102474 7734 0.000000 0.000000
17 -0.867920 30.0 1559 6146 93699 11465 3843102510 7705 0.000000 0.000000
18 -0.802002 30.0 1039 6501 93325 11406 3843102545 7540 0.000000 0.000000
19 -0.725098 30.0 896 6638 93128 11248 3843102580 7534 0.000000 0.000000
20 -0.670166 30.0 1323 6253 92558 11408 3843102615 7576 0.000000 0.000000
21 -0.626221 30.0 1807 5767 92853 11222 3843102651 7574 0.000000 0.000000
22 -0.527344 30.0 2861 4967 93396 11297 3843102686 7828 0.000000 0.000000
23 -0.450439 30.0 3759 3992 92979 11346 3843102721 7751 0.000000 0.000000
24 -0.373535 30.0 4906 3021 93133 11112 3843102757 7927 0.000000 0.000000
25 -0.318603 30.0 5377 2592 93418 11567 3843102792 7969 0.000000 0.000000
26 -0.252686 30.0 5781 2401 92958 11202 3843102827 8182 0.000000 0.000000
27 -0.186768 30.0 5446 2441 92921 11259 3843102863 7887 0.000000 0.000000
28 -0.098877 30.0 4960 2968 92899 11330 3843102898 7928 0.000000 0.000000
29 -0.032959 30.0 4270 3683 92734 11171 3843102933 7953 0.000000 0.000000
30 0.032959 30.0 3507 4321 93374 11391 3843102968 7828 0.000000 0.000000
