# ps_pos exposure_time(s) O-Beam H-Beam Monitor AUX-Beam time(s) O+H encod1 encod2
1 0.000000 20.0 806 7391 129989 2078 3781612980 8197 0.000000 0.000000 10000.00
2 0.197754 20.0 649 8604 131448 1282 3781613006 9253 0.000000 0.000000 10000.00
3 0.384522 20.0 464 9274 132051 865 3781613032 9738 0.000000 0.000000 10000.00
4 0.604248 20.0 440 9550 132528 872 3781613058 9990 0.000000 0.000000 10000.00
5 0.802002 20.0 619 8496 129503 1547 3781613085 9115 0.000000 0.000000 10000.00
6 0.999756 20.0 913 7260 129839 2319 3781613111 8173 0.000000 0.000000 10000.00
7 1.186523 20.0 1216 5874 132629 3444 3781613137 7090 0.000000 0.000000 10000.00
8 1.395264 20.0 1374 4729 130938 4050 3781613163 6103 0.000000 0.000000 10000.00
9 1.604004 20.0 1319 4746 129578 3780 3781613189 6065 0.000000 0.000000 10000.00
10 1.790771 20.0 1237 5689 129434 3293 3781613215 6926 0.000000 0.000000 10000.00
11 1.999512 20.0 934 7002 129220 2390 3781613242 7936 0.000000 0.000000 10000.00
12 2.197266 20.0 667 8544 132525 1483 3781613268 9211 0.000000 0.000000 10000.00
13 2.395020 20.0 490 9297 133805 892 3781613294 9787 0.000000 0.000000 10000.00
14 2.592773 20.0 482 9368 130023 860 3781613320 9850 0.000000 0.000000 10000.00
15 2.801514 20.0 550 8649 129724 1394 3781613346 9199 0.000000 0.000000 10000.00
16 2.988281 20.0 846 7363 131504 2200 3781613373 8209 0.000000 0.000000 10000.00
17 3.186035 20.0 1051 6135 130687 3128 3781613399 7186 0.000000 0.000000 10000.00
18 3.394775 20.0 1336 5010 129265 3701 3781613425 6346 0.000000 0.000000 10000.00
19 3.603516 20.0 1325 4860 131830 3930 3781613451 6185 0.000000 0.000000 10000.00
20 3.790283 20.0 1278 5681 132174 3395 3781613477 6959 0.000000 0.000000 10000.00
21 3.988037 20.0 1084 6759 129625 2586 3781613504 7843 0.000000 0.000000 10000.00
