# ps_pos exposure_time(s) O-Beam H-Beam Monitor AUX-Beam time(s) O+H encod1 encod2
1 0.000000 20.0 480 8279 131678 1073 3781636606 8759 0.000000 0.000000 40000.00
2 0.197754 20.0 317 8926 128324 640 3781636632 9243 0.000000 0.000000 40000.00
3 0.395508 20.0 420 8508 128164 823 3781636659 8928 0.000000 0.000000 40000.00
4 0.593262 20.0 636 7556 130223 1450 3781636685 8192 0.000000 0.000000 40000.00
5 0.791016 20.0 955 5932 130161 2445 3781636711 6887 0.000000 0.000000 40000.00
6 0.999756 20.0 1284 4546 130980 3168 3781636737 5830 0.000000 0.000000 40000.00
7 1.197510 20.0 1343 4089 130347 3691 3781636763 5432 0.000000 0.000000 40000.00
8 1.395264 20.0 1303 4446 129934 3446 3781636789 5749 0.000000 0.000000 40000.00
9 1.604004 20.0 1075 5240 128467 2869 3781636816 6315 0.000000 0.000000 40000.00
10 1.801758 20.0 744 6634 129621 2056 3781636842 7378 0.000000 0.000000 40000.00
11 1.988525 20.0 440 8179 131963 1119 3781636868 8619 0.000000 0.000000 40000.00
12 2.197266 20.0 278 9052 132278 573 3781636894 9330 0.000000 0.000000 40000.00
13 2.384033 20.0 353 8749 132056 670 3781636920 9102 0.000000 0.000000 40000.00
14 2.592773 20.0 573 7793 132294 1311 3781636946 8366 0.000000 0.000000 40000.00
15 2.801514 20.0 891 6481 132213 2170 3781636973 7372 0.000000 0.000000 40000.00
16 2.999268 20.0 1225 5074 131727 3158 3781636999 6299 0.000000 0.000000 40000.00
17 3.186035 20.0 1329 4389 132322 3480 3781637025 5718 0.000000 0.000000 40000.00
18 3.394775 20.0 1362 4190 131938 3650 3781637051 5552 0.000000 0.000000 40000.00
19 3.603516 20.0 1089 5134 131997 3011 3781637077 6223 0.000000 0.000000 40000.00
20 3.790283 20.0 769 6523 129149 2071 3781637103 7292 0.000000 0.000000 40000.00
21 3.988037 20.0 479 8030 131192 1197 3781637130 8509 0.000000 0.000000 40000.00
