# ps_pos exposure_time(s) O-Beam H-Beam Monitor AUX-Beam time(s) O+H encod1 encod2
1 0.000000 20.0 825 7471 131900 2092 3781615343 8296 0.000000 0.000000 15000.00
2 0.197754 20.0 620 8425 132685 1333 3781615369 9045 0.000000 0.000000 15000.00
3 0.384522 20.0 483 9092 128826 828 3781615395 9575 0.000000 0.000000 15000.00
4 0.604248 20.0 530 9169 129679 1003 3781615421 9699 0.000000 0.000000 15000.00
5 0.802002 20.0 682 8130 132189 1588 3781615447 8812 0.000000 0.000000 15000.00
6 0.999756 20.0 946 6767 132716 2531 3781615473 7713 0.000000 0.000000 15000.00
7 1.186523 20.0 1176 5478 132512 3215 3781615499 6654 0.000000 0.000000 15000.00
8 1.384277 20.0 1313 4883 132155 3630 3781615526 6196 0.000000 0.000000 15000.00
9 1.614990 20.0 1320 4848 132632 3564 3781615552 6168 0.000000 0.000000 15000.00
10 1.801758 20.0 1190 5746 132493 3200 3781615578 6936 0.000000 0.000000 15000.00
11 1.988525 20.0 933 6871 132993 2315 3781615604 7804 0.000000 0.000000 15000.00
12 2.197266 20.0 638 8335 132767 1440 3781615631 8973 0.000000 0.000000 15000.00
13 2.395020 20.0 516 9140 133027 953 3781615657 9656 0.000000 0.000000 15000.00
14 2.603760 20.0 486 9245 132869 895 3781615683 9731 0.000000 0.000000 15000.00
15 2.801514 20.0 620 8342 133030 1487 3781615709 8962 0.000000 0.000000 15000.00
16 2.999268 20.0 867 7230 132143 2259 3781615735 8097 0.000000 0.000000 15000.00
17 3.197021 20.0 1110 5827 132840 3070 3781615762 6937 0.000000 0.000000 15000.00
18 3.383789 20.0 1268 4999 129071 3531 3781615788 6267 0.000000 0.000000 15000.00
19 3.603516 20.0 1276 5089 129313 3634 3781615814 6365 0.000000 0.000000 15000.00
20 3.790283 20.0 1158 5753 129646 3216 3781615840 6911 0.000000 0.000000 15000.00
21 3.999023 20.0 937 6946 129728 2491 3781615867 7883 0.000000 0.000000 15000.00
