# ps_pos exposure_time(s) O-Beam H-Beam Monitor AUX-Beam time(s) O+H encod1 encod2
1 0.000000 20.0 310 8257 133793 868 3781646056 8567 0.000000 0.000000 44000.00
2 0.197754 20.0 318 8650 132507 602 3781646082 8968 0.000000 0.000000 44000.00
3 0.384522 20.0 472 7828 128963 1094 3781646108 8300 0.000000 0.000000 44000.00
4 0.593262 20.0 769 6856 131324 1720 3781646135 7625 0.000000 0.000000 44000.00
5 0.802002 20.0 1124 5354 131669 2554 3781646161 6478 0.000000 0.000000 44000.00
6 0.988769 20.0 1283 4411 132289 3267 3781646187 5694 0.000000 0.000000 44000.00
7 1.197510 20.0 1290 4001 129889 3669 3781646213 5291 0.000000 0.000000 44000.00
8 1.395264 20.0 1314 4407 130377 3189 3781646239 5721 0.000000 0.000000 44000.00
9 1.604004 20.0 904 5597 129967 2335 3781646265 6501 0.000000 0.000000 44000.00
10 1.801758 20.0 622 7022 129693 1665 3781646292 7644 0.000000 0.000000 44000.00
11 1.999512 20.0 388 8251 130014 894 3781646318 8639 0.000000 0.000000 44000.00
12 2.197266 20.0 286 8707 130602 576 3781646344 8993 0.000000 0.000000 44000.00
13 2.395020 20.0 425 8163 130668 861 3781646370 8588 0.000000 0.000000 44000.00
14 2.603760 20.0 647 7117 131761 1545 3781646397 7764 0.000000 0.000000 44000.00
15 2.790527 20.0 952 5983 131914 2418 3781646423 6935 0.000000 0.000000 44000.00
16 2.999268 20.0 1119 4882 131428 2876 3781646449 6001 0.000000 0.000000 44000.00
17 3.197021 20.0 1307 4085 130866 3445 3781646475 5392 0.000000 0.000000 44000.00
18 3.394775 20.0 1262 4279 129426 3398 3781646501 5541 0.000000 0.000000 44000.00
19 3.592529 20.0 959 5645 129408 2621 3781646528 6604 0.000000 0.000000 44000.00
20 3.790283 20.0 656 6751 130289 1818 3781646554 7407 0.000000 0.000000 44000.00
21 3.988037 20.0 379 7905 131738 1007 3781646580 8284 0.000000 0.000000 44000.00
