# ps_pos exposure_time(s) O-Beam H-Beam Monitor AUX-Beam time(s) O+H encod1 encod2
1 0.010986 20.0 451 8537 132230 1087 3781631881 8988 0.000000 0.000000 38000.00
2 0.197754 20.0 293 9036 131642 622 3781631907 9329 0.000000 0.000000 38000.00
3 0.384522 20.0 368 8907 129371 657 3781631933 9275 0.000000 0.000000 38000.00
4 0.593262 20.0 583 8085 129873 1274 3781631959 8668 0.000000 0.000000 38000.00
5 0.791016 20.0 949 6488 131786 2285 3781631985 7437 0.000000 0.000000 38000.00
6 0.988769 20.0 1241 5025 128916 3191 3781632011 6266 0.000000 0.000000 38000.00
7 1.197510 20.0 1452 4238 129425 3698 3781632037 5690 0.000000 0.000000 38000.00
8 1.384277 20.0 1358 4315 131535 3771 3781632064 5673 0.000000 0.000000 38000.00
9 1.604004 20.0 1113 5230 131617 3014 3781632090 6343 0.000000 0.000000 38000.00
10 1.801758 20.0 862 6455 131434 2258 3781632116 7317 0.000000 0.000000 38000.00
11 1.999512 20.0 586 7803 130399 1422 3781632142 8389 0.000000 0.000000 38000.00
12 2.197266 20.0 310 8879 129106 688 3781632168 9189 0.000000 0.000000 38000.00
13 2.384033 20.0 299 9319 129502 601 3781632195 9618 0.000000 0.000000 38000.00
14 2.603760 20.0 514 8271 129547 1143 3781632221 8785 0.000000 0.000000 38000.00
15 2.801514 20.0 866 6862 132882 2075 3781632247 7728 0.000000 0.000000 38000.00
16 2.988281 20.0 1156 5421 132011 2934 3781632273 6577 0.000000 0.000000 38000.00
17 3.197021 20.0 1338 4323 131038 3572 3781632300 5661 0.000000 0.000000 38000.00
18 3.394775 20.0 1369 4179 129980 3763 3781632326 5548 0.000000 0.000000 38000.00
19 3.592529 20.0 1217 5126 132034 3234 3781632352 6343 0.000000 0.000000 38000.00
20 3.801270 20.0 916 6347 129876 2367 3781632378 7263 0.000000 0.000000 38000.00
21 3.999023 20.0 593 7807 130062 1493 3781632404 8400 0.000000 0.000000 38000.00
