# ps_pos exposure_time(s) O-Beam H-Beam Monitor AUX-Beam time(s) O+H encod1 encod2
1 0.010986 20.0 614 8053 131395 1636 3781622431 8667 0.000000 0.000000 30000.00
2 0.197754 20.0 428 8930 132376 871 3781622457 9358 0.000000 0.000000 30000.00
3 0.384522 20.0 397 9251 129633 794 3781622483 9648 0.000000 0.000000 30000.00
4 0.604248 20.0 510 8471 130809 1288 3781622509 8981 0.000000 0.000000 30000.00
5 0.802002 20.0 837 7111 132153 2026 3781622536 7948 0.000000 0.000000 30000.00
6 0.988769 20.0 1010 6055 130505 2834 3781622562 7065 0.000000 0.000000 30000.00
7 1.197510 20.0 1390 4737 128801 3543 3781622588 6127 0.000000 0.000000 30000.00
8 1.395264 20.0 1364 4566 131382 3729 3781622614 5930 0.000000 0.000000 30000.00
9 1.604004 20.0 1223 5353 132178 3410 3781622640 6576 0.000000 0.000000 30000.00
10 1.790771 20.0 1030 6185 130136 2756 3781622666 7215 0.000000 0.000000 30000.00
11 1.999512 20.0 752 7417 130761 1875 3781622693 8169 0.000000 0.000000 30000.00
12 2.197266 20.0 528 8698 131551 1113 3781622719 9226 0.000000 0.000000 30000.00
13 2.384033 20.0 358 9137 131313 769 3781622745 9495 0.000000 0.000000 30000.00
14 2.592773 20.0 478 8534 132921 1068 3781622771 9012 0.000000 0.000000 30000.00
15 2.801514 20.0 728 7521 130404 1814 3781622797 8249 0.000000 0.000000 30000.00
16 2.999268 20.0 1017 6135 129993 2703 3781622824 7152 0.000000 0.000000 30000.00
17 3.197021 20.0 1197 5173 128901 3304 3781622850 6370 0.000000 0.000000 30000.00
18 3.394775 20.0 1298 4706 128661 3682 3781622876 6004 0.000000 0.000000 30000.00
19 3.603516 20.0 1190 4939 132372 3516 3781622902 6129 0.000000 0.000000 30000.00
20 3.812256 20.0 1022 6167 131648 2674 3781622928 7189 0.000000 0.000000 30000.00
21 3.999023 20.0 773 7477 129772 1875 3781622955 8250 0.000000 0.000000 30000.00
