# ps_pos exposure_time(s) O-Beam H-Beam Monitor AUX-Beam time(s) O+H encod1 encod2
1 0.000000 20.0 431 8251 130574 1148 3781629518 8682 0.000000 0.000000 37000.00
2 0.186768 20.0 314 9197 132104 633 3781629545 9511 0.000000 0.000000 37000.00
3 0.395508 20.0 334 9277 130769 700 3781629571 9611 0.000000 0.000000 37000.00
4 0.604248 20.0 604 8241 128811 1291 3781629597 8845 0.000000 0.000000 37000.00
5 0.812988 20.0 879 6738 128387 2248 3781629623 7617 0.000000 0.000000 37000.00
6 0.999756 20.0 1228 5227 129378 3277 3781629649 6455 0.000000 0.000000 37000.00
7 1.197510 20.0 1399 4394 131548 3581 3781629675 5793 0.000000 0.000000 37000.00
8 1.395264 20.0 1370 4350 132457 3718 3781629701 5720 0.000000 0.000000 37000.00
9 1.593018 20.0 1171 5381 132002 3038 3781629728 6552 0.000000 0.000000 37000.00
10 1.801758 20.0 884 6466 131936 2239 3781629754 7350 0.000000 0.000000 37000.00
11 1.999512 20.0 602 8043 129013 1447 3781629780 8645 0.000000 0.000000 37000.00
12 2.186279 20.0 426 8620 130533 900 3781629806 9046 0.000000 0.000000 37000.00
13 2.384033 20.0 333 9193 133088 672 3781629832 9526 0.000000 0.000000 37000.00
14 2.603760 20.0 554 8431 130844 1206 3781629858 8985 0.000000 0.000000 37000.00
15 2.801514 20.0 812 6901 129912 2003 3781629884 7713 0.000000 0.000000 37000.00
16 2.999268 20.0 1175 5388 129031 2960 3781629911 6563 0.000000 0.000000 37000.00
17 3.186035 20.0 1338 4380 128644 3603 3781629937 5718 0.000000 0.000000 37000.00
18 3.383789 20.0 1379 4387 129871 3646 3781629963 5766 0.000000 0.000000 37000.00
19 3.592529 20.0 1177 5095 130545 3166 3781629989 6272 0.000000 0.000000 37000.00
20 3.801270 20.0 843 6195 132174 2292 3781630015 7038 0.000000 0.000000 37000.00
21 4.010010 20.0 599 7820 130023 1507 3781630042 8419 0.000000 0.000000 37000.00
