# ps_pos exposure_time(s) O-Beam H-Beam Monitor AUX-Beam time(s) O+H encod1 encod2
1 0.010986 20.0 496 8469 132057 1169 3781627156 8965 0.000000 0.000000 36000.00
2 0.197754 20.0 368 9214 129278 702 3781627182 9582 0.000000 0.000000 36000.00
3 0.395508 20.0 355 9310 130905 647 3781627208 9665 0.000000 0.000000 36000.00
4 0.615234 20.0 544 8308 131888 1317 3781627235 8852 0.000000 0.000000 36000.00
5 0.802002 20.0 876 6834 128769 2174 3781627261 7710 0.000000 0.000000 36000.00
6 0.999756 20.0 1185 5407 129434 2958 3781627287 6592 0.000000 0.000000 36000.00
7 1.197510 20.0 1348 4391 129756 3642 3781627313 5739 0.000000 0.000000 36000.00
8 1.384277 20.0 1346 4282 129884 3728 3781627339 5628 0.000000 0.000000 36000.00
9 1.604004 20.0 1233 5017 131855 3295 3781627365 6250 0.000000 0.000000 36000.00
10 1.801758 20.0 946 6483 131172 2498 3781627391 7429 0.000000 0.000000 36000.00
11 1.988525 20.0 654 7725 129417 1568 3781627418 8379 0.000000 0.000000 36000.00
12 2.197266 20.0 380 9032 128808 844 3781627444 9412 0.000000 0.000000 36000.00
13 2.384033 20.0 375 9341 129085 690 3781627470 9716 0.000000 0.000000 36000.00
14 2.603760 20.0 525 8415 131369 1164 3781627496 8940 0.000000 0.000000 36000.00
15 2.801514 20.0 814 7211 131146 1918 3781627522 8025 0.000000 0.000000 36000.00
16 2.988281 20.0 1101 5861 129285 2755 3781627549 6962 0.000000 0.000000 36000.00
17 3.186035 20.0 1340 4704 130191 3588 3781627575 6044 0.000000 0.000000 36000.00
18 3.405762 20.0 1395 4313 132266 3927 3781627601 5708 0.000000 0.000000 36000.00
19 3.592529 20.0 1200 5036 129657 3328 3781627627 6236 0.000000 0.000000 36000.00
20 3.790283 20.0 875 6410 129174 2389 3781627653 7285 0.000000 0.000000 36000.00
21 3.988037 20.0 641 7710 130263 1618 3781627679 8351 0.000000 0.000000 36000.00
