# ps_pos exposure_time(s) O-Beam H-Beam Monitor AUX-Beam time(s) O+H encod1 encod2
1 0.010986 20.0 746 7842 131775 1906 3781617706 8588 0.000000 0.000000 20000.00
2 0.208740 20.0 586 8639 129506 1277 3781617732 9225 0.000000 0.000000 20000.00
3 0.395508 20.0 505 9030 129863 979 3781617758 9535 0.000000 0.000000 20000.00
4 0.604248 20.0 568 8706 130497 1242 3781617784 9274 0.000000 0.000000 20000.00
5 0.802002 20.0 755 7813 130928 1760 3781617810 8568 0.000000 0.000000 20000.00
6 0.999756 20.0 917 6698 131833 2521 3781617837 7615 0.000000 0.000000 20000.00
7 1.186523 20.0 1229 5597 129207 3304 3781617863 6826 0.000000 0.000000 20000.00
8 1.384277 20.0 1300 4857 129028 3665 3781617889 6157 0.000000 0.000000 20000.00
9 1.604004 20.0 1294 5092 132000 3706 3781617915 6386 0.000000 0.000000 20000.00
10 1.801758 20.0 1144 6190 132479 2859 3781617941 7334 0.000000 0.000000 20000.00
11 1.999512 20.0 878 7250 131753 2136 3781617967 8128 0.000000 0.000000 20000.00
12 2.186279 20.0 634 8311 130722 1450 3781617993 8945 0.000000 0.000000 20000.00
13 2.395020 20.0 517 9000 130511 987 3781618019 9517 0.000000 0.000000 20000.00
14 2.603760 20.0 528 8649 129173 1084 3781618046 9177 0.000000 0.000000 20000.00
15 2.801514 20.0 652 8326 129178 1619 3781618072 8978 0.000000 0.000000 20000.00
16 2.999268 20.0 910 6937 131419 2342 3781618098 7847 0.000000 0.000000 20000.00
17 3.186035 20.0 1129 5895 130264 3186 3781618124 7024 0.000000 0.000000 20000.00
18 3.394775 20.0 1271 5031 128545 3590 3781618150 6302 0.000000 0.000000 20000.00
19 3.603516 20.0 1299 5021 130006 3549 3781618177 6320 0.000000 0.000000 20000.00
20 3.801270 20.0 1135 5862 132546 3010 3781618203 6997 0.000000 0.000000 20000.00
21 3.988037 20.0 900 7243 129367 2193 3781618229 8143 0.000000 0.000000 20000.00
