# ps_pos exposure_time(s) O-Beam H-Beam Monitor AUX-Beam time(s) O+H encod1 encod2
1 0.000000 20.0 334 8137 130752 811 3781650782 8471 0.000000 0.000000 50000.00
2 0.208740 20.0 400 7952 129978 833 3781650808 8352 0.000000 0.000000 50000.00
3 0.395508 20.0 578 7434 129349 1252 3781650834 8012 0.000000 0.000000 50000.00
4 0.604248 20.0 933 6188 129518 2079 3781650860 7121 0.000000 0.000000 50000.00
5 0.802002 20.0 1147 4774 129080 2836 3781650886 5921 0.000000 0.000000 50000.00
6 0.988769 20.0 1248 4135 128652 3398 3781650913 5383 0.000000 0.000000 50000.00
7 1.197510 20.0 1317 4192 130340 3383 3781650939 5509 0.000000 0.000000 50000.00
8 1.384277 20.0 985 4876 130400 2933 3781650965 5861 0.000000 0.000000 50000.00
9 1.604004 20.0 778 6151 128797 2165 3781650991 6929 0.000000 0.000000 50000.00
10 1.790771 20.0 502 7347 128621 1267 3781651017 7849 0.000000 0.000000 50000.00
11 1.999512 20.0 338 8114 128512 863 3781651043 8452 0.000000 0.000000 50000.00
12 2.197266 20.0 352 8209 128917 767 3781651070 8561 0.000000 0.000000 50000.00
13 2.395020 20.0 570 7531 129257 1313 3781651096 8101 0.000000 0.000000 50000.00
14 2.603760 20.0 840 6241 129377 1979 3781651122 7081 0.000000 0.000000 50000.00
15 2.801514 20.0 1165 4983 129565 2716 3781651148 6148 0.000000 0.000000 50000.00
16 2.999268 20.0 1279 4429 129002 3213 3781651174 5708 0.000000 0.000000 50000.00
17 3.186035 20.0 1278 4070 130100 3373 3781651201 5348 0.000000 0.000000 50000.00
18 3.394775 20.0 1088 4841 130474 2923 3781651227 5929 0.000000 0.000000 50000.00
19 3.603516 20.0 831 5787 132100 2189 3781651253 6618 0.000000 0.000000 50000.00
20 3.801270 20.0 574 7065 132972 1460 3781651279 7639 0.000000 0.000000 50000.00
21 3.988037 20.0 456 7420 129340 1214 3781651305 7876 0.000000 0.000000 50000.00
