# ps_pos exposure_time(s) O-Beam H-Beam Monitor AUX-Beam time(s) O+H encod1 encod2
1 0.010986 20.0 546 8441 123837 1297 3781624794 8987 0.000000 0.000000 35000.00
2 0.197754 20.0 381 9215 123311 787 3781624820 9596 0.000000 0.000000 35000.00
3 0.384522 20.0 356 9186 123017 690 3781624846 9542 0.000000 0.000000 35000.00
4 0.593262 20.0 604 8234 123528 1280 3781624872 8838 0.000000 0.000000 35000.00
5 0.791016 20.0 841 6792 123152 2057 3781624898 7633 0.000000 0.000000 35000.00
6 0.988769 20.0 1140 5625 122665 2891 3781624924 6765 0.000000 0.000000 35000.00
7 1.186523 20.0 1399 4598 123543 3552 3781624951 5997 0.000000 0.000000 35000.00
8 1.384277 20.0 1366 4383 122685 3753 3781624977 5749 0.000000 0.000000 35000.00
9 1.604004 20.0 1193 5383 131823 3267 3781625003 6576 0.000000 0.000000 35000.00
10 1.812744 20.0 931 6508 131970 2508 3781625029 7439 0.000000 0.000000 35000.00
11 1.999512 20.0 636 8093 133609 1455 3781625055 8729 0.000000 0.000000 35000.00
12 2.186279 20.0 399 9184 131561 888 3781625081 9583 0.000000 0.000000 35000.00
13 2.395020 20.0 338 9391 129848 656 3781625108 9729 0.000000 0.000000 35000.00
14 2.603760 20.0 519 8390 129749 1103 3781625134 8909 0.000000 0.000000 35000.00
15 2.790527 20.0 785 7048 129310 2088 3781625160 7833 0.000000 0.000000 35000.00
16 2.999268 20.0 1130 5822 130493 2900 3781625186 6952 0.000000 0.000000 35000.00
17 3.197021 20.0 1344 4770 129919 3552 3781625212 6114 0.000000 0.000000 35000.00
18 3.383789 20.0 1340 4469 129964 3724 3781625238 5809 0.000000 0.000000 35000.00
19 3.603516 20.0 1294 5096 131239 3420 3781625265 6390 0.000000 0.000000 35000.00
20 3.790283 20.0 956 6416 131622 2541 3781625291 7372 0.000000 0.000000 35000.00
21 3.999023 20.0 679 7989 131686 1523 3781625317 8668 0.000000 0.000000 35000.00
