# ps_pos exposure_time(s) O-Beam H-Beam Monitor AUX-Beam time(s) O+H+AUX encod1 encod2
1 -1.944580 30.0 1122 3801 70780 9777 3843342646 4923 0.000000 0.000000
2 -1.878662 30.0 1265 3134 71408 10989 3843342681 4399 0.000000 0.000000
3 -1.812744 30.0 1248 2596 71850 11828 3843342716 3844 0.000000 0.000000
4 -1.757812 30.0 1229 2241 71003 12204 3843342752 3470 0.000000 0.000000
5 -1.702881 30.0 1302 2261 71416 11857 3843342787 3563 0.000000 0.000000
6 -1.636963 30.0 1287 2768 71318 11214 3843342822 4055 0.000000 0.000000
7 -1.571045 30.0 1370 3247 71238 10427 3843342857 4617 0.000000 0.000000
8 -1.505127 30.0 1310 4046 71528 8734 3843342893 5356 0.000000 0.000000
9 -1.428223 30.0 1227 4883 71876 7327 3843342928 6110 0.000000 0.000000
10 -1.384277 30.0 1206 5554 71100 6260 3843342963 6760 0.000000 0.000000
11 -1.318359 30.0 1172 6213 71177 5429 3843342998 7385 0.000000 0.000000
12 -1.263428 30.0 1133 6470 71256 4816 3843343033 7603 0.000000 0.000000
13 -1.208496 30.0 1092 6517 71462 4783 3843343068 7609 0.000000 0.000000
14 -1.142578 30.0 1116 6177 71436 5231 3843343104 7293 0.000000 0.000000
15 -1.087646 30.0 1095 5620 71767 6081 3843343139 6715 0.000000 0.000000
16 -1.010742 30.0 1105 5136 71173 7344 3843343174 6241 0.000000 0.000000
17 -0.955811 30.0 1170 4259 71027 9048 3843343209 5429 0.000000 0.000000
18 -0.889893 30.0 1194 3504 71252 10216 3843343244 4698 0.000000 0.000000
19 -0.823975 30.0 1222 2778 71292 11413 3843343280 4000 0.000000 0.000000
20 -0.747070 30.0 1269 2359 70925 12301 3843343315 3628 0.000000 0.000000
21 -0.692139 30.0 1264 2403 71520 12349 3843343350 3667 0.000000 0.000000
22 -0.615234 30.0 1359 2637 71496 11707 3843343385 3996 0.000000 0.000000
23 -0.549316 30.0 1309 3135 71614 10646 3843343421 4444 0.000000 0.000000
24 -0.494385 30.0 1233 3889 71209 9094 3843343456 5122 0.000000 0.000000
25 -0.417480 30.0 1349 4870 71283 7667 3843343491 6219 0.000000 0.000000
26 -0.351562 30.0 1199 5612 71315 6331 3843343526 6811 0.000000 0.000000
27 -0.285645 30.0 1259 5937 71271 5376 3843343561 7196 0.000000 0.000000
28 -0.219727 30.0 1148 6346 71442 4928 3843343596 7494 0.000000 0.000000
29 -0.153809 30.0 1082 6509 71526 4844 3843343632 7591 0.000000 0.000000
30 -0.087891 30.0 1168 6207 71278 5301 3843343667 7375 0.000000 0.000000
