# ps_pos exposure_time(s) O-Beam H-Beam Monitor AUX-Beam time(s) O+H+AUX encod1 encod2
1 -1.406250 30.0 1243 5234 70844 6943 3843341584 6477 0.000000 0.000000
2 -1.362305 30.0 1161 5735 71530 5767 3843341619 6896 0.000000 0.000000
3 -1.285400 30.0 1181 6333 71563 5042 3843341655 7514 0.000000 0.000000
4 -1.230469 30.0 1182 6582 71412 4796 3843341690 7764 0.000000 0.000000
5 -1.186523 30.0 1092 6512 71691 4981 3843341725 7604 0.000000 0.000000
6 -1.109619 30.0 1109 6126 70924 5811 3843341760 7235 0.000000 0.000000
7 -1.032715 30.0 1061 5394 71563 7177 3843341795 6455 0.000000 0.000000
8 -0.966797 30.0 1152 4439 71177 8478 3843341830 5591 0.000000 0.000000
9 -0.911865 30.0 1206 3786 71553 9849 3843341866 4992 0.000000 0.000000
10 -0.845947 30.0 1243 3183 71723 10868 3843341901 4426 0.000000 0.000000
11 -0.791016 30.0 1233 2564 71510 11694 3843341936 3797 0.000000 0.000000
12 -0.714111 30.0 1283 2288 71304 12097 3843341971 3571 0.000000 0.000000
13 -0.648193 30.0 1399 2454 71201 12277 3843342006 3853 0.000000 0.000000
14 -0.571289 30.0 1368 2901 71750 11136 3843342042 4269 0.000000 0.000000
15 -0.516357 30.0 1245 3656 71520 9916 3843342077 4901 0.000000 0.000000
16 -0.461426 30.0 1271 4393 71255 8511 3843342112 5664 0.000000 0.000000
17 -0.384522 30.0 1230 5143 71096 7151 3843342147 6373 0.000000 0.000000
18 -0.318603 30.0 1197 5867 70619 5811 3843342182 7064 0.000000 0.000000
19 -0.252686 30.0 1239 6020 71641 4889 3843342217 7259 0.000000 0.000000
20 -0.197754 30.0 1183 6421 71337 4683 3843342253 7604 0.000000 0.000000
21 -0.131836 30.0 1106 6380 71843 4944 3843342288 7486 0.000000 0.000000
22 -0.065918 30.0 1121 5847 71463 5993 3843342323 6968 0.000000 0.000000
23 0.010986 30.0 1154 5049 71389 7327 3843342358 6203 0.000000 0.000000
24 0.076904 30.0 1064 4411 70869 8835 3843342394 5475 0.000000 0.000000
25 0.142822 30.0 1209 3591 71699 10174 3843342429 4800 0.000000 0.000000
26 0.186768 30.0 1225 3060 71461 11170 3843342464 4285 0.000000 0.000000
27 0.252686 30.0 1164 2676 71026 11833 3843342499 3840 0.000000 0.000000
28 0.329590 30.0 1285 2290 71299 12146 3843342534 3575 0.000000 0.000000
29 0.395508 30.0 1286 2353 71111 12092 3843342569 3639 0.000000 0.000000
30 0.472412 30.0 1267 2907 71204 10851 3843342605 4174 0.000000 0.000000
