# ps_pos exposure_time(s) O-Beam H-Beam Monitor AUX-Beam time(s) O+H+AUX encod1 encod2
1 -0.461426 30.0 3586 2231 73166 8353 3843919732 5817 0.000000 0.000000
2 -0.406494 30.0 3100 1993 73625 9760 3843919767 5093 0.000000 0.000000
3 -0.362549 30.0 2579 1930 73347 10828 3843919802 4509 0.000000 0.000000
4 -0.274658 30.0 1964 1981 73693 11646 3843919838 3945 0.000000 0.000000
5 -0.219727 30.0 1486 2198 73221 12230 3843919873 3684 0.000000 0.000000
6 -0.175781 30.0 1159 2480 73886 11859 3843919908 3639 0.000000 0.000000
7 -0.109863 30.0 910 3051 73642 11348 3843919943 3961 0.000000 0.000000
8 -0.032959 30.0 957 3748 73770 10412 3843919978 4705 0.000000 0.000000
9 0.032959 30.0 1262 4292 73188 8765 3843920014 5554 0.000000 0.000000
10 0.098877 30.0 1625 4499 73757 7236 3843920049 6124 0.000000 0.000000
11 0.153809 30.0 2124 4795 74542 6198 3843920084 6919 0.000000 0.000000
12 0.219727 30.0 2767 4791 74378 4979 3843920119 7558 0.000000 0.000000
13 0.263672 30.0 3152 4509 74439 4764 3843920154 7661 0.000000 0.000000
14 0.340576 30.0 3647 4222 75440 4978 3843920190 7869 0.000000 0.000000
15 0.406494 30.0 3847 3693 73753 5498 3843920225 7540 0.000000 0.000000
16 0.461426 30.0 3872 3164 73644 6497 3843920260 7036 0.000000 0.000000
17 0.538330 30.0 3794 2654 73940 7491 3843920295 6448 0.000000 0.000000
18 0.582275 30.0 3450 2304 73697 8807 3843920330 5754 0.000000 0.000000
19 0.637207 30.0 3004 2073 73440 10077 3843920366 5077 0.000000 0.000000
20 0.714111 30.0 2302 1985 73309 11207 3843920401 4287 0.000000 0.000000
21 0.780029 30.0 1689 2072 73400 11917 3843920436 3761 0.000000 0.000000
22 0.823975 30.0 1332 2331 73600 12193 3843920471 3663 0.000000 0.000000
23 0.900879 30.0 1036 2821 73991 11719 3843920506 3857 0.000000 0.000000
24 0.955811 30.0 925 3383 73398 10570 3843920542 4308 0.000000 0.000000
25 1.032715 30.0 994 3886 73522 9785 3843920577 4880 0.000000 0.000000
26 1.087646 30.0 1266 4415 73614 8267 3843920612 5681 0.000000 0.000000
27 1.142578 30.0 1831 4623 73327 7030 3843920647 6454 0.000000 0.000000
28 1.208496 30.0 2368 4745 72977 5895 3843920682 7113 0.000000 0.000000
29 1.285400 30.0 3012 4710 73421 5253 3843920717 7722 0.000000 0.000000
30 1.329346 30.0 3444 4523 73017 4723 3843920753 7967 0.000000 0.000000
31 1.406250 30.0 3872 4026 73442 5040 3843920788 7898 0.000000 0.000000
32 1.461182 30.0 3977 3477 73951 5600 3843920823 7454 0.000000 0.000000
33 1.516113 30.0 3948 2959 73308 6775 3843920858 6907 0.000000 0.000000
34 1.593018 30.0 3754 2477 73844 8038 3843920893 6231 0.000000 0.000000
35 1.647949 30.0 3152 2140 72821 9553 3843920929 5292 0.000000 0.000000
36 1.713867 30.0 2596 1936 73151 10784 3843920964 4532 0.000000 0.000000
37 1.790771 30.0 1908 1994 73065 11692 3843920999 3902 0.000000 0.000000
38 1.845703 30.0 1521 2230 73364 11897 3843921034 3751 0.000000 0.000000
39 1.922607 30.0 1098 2767 73530 11736 3843921069 3865 0.000000 0.000000
40 1.999512 30.0 948 3364 72969 10827 3843921104 4312 0.000000 0.000000
41 2.054443 30.0 1012 3868 73386 9653 3843921140 4880 0.000000 0.000000
42 2.120361 30.0 1358 4403 73292 8287 3843921175 5761 0.000000 0.000000
43 2.175293 30.0 1751 4635 73631 6963 3843921210 6386 0.000000 0.000000
44 2.230225 30.0 2277 4839 74193 6022 3843921245 7116 0.000000 0.000000
45 2.296143 30.0 2903 4661 73533 5319 3843921280 7564 0.000000 0.000000
46 2.362061 30.0 3379 4307 73516 4979 3843921316 7686 0.000000 0.000000
47 2.427979 30.0 3710 4113 73236 5015 3843921351 7823 0.000000 0.000000
48 2.493896 30.0 3817 3403 73257 5898 3843921386 7220 0.000000 0.000000
49 2.559814 30.0 3771 2788 72992 7091 3843921421 6559 0.000000 0.000000
50 2.625732 30.0 3464 2458 73131 8343 3843921456 5922 0.000000 0.000000
51 2.691650 30.0 3047 2037 73165 9825 3843921492 5084 0.000000 0.000000
52 2.746582 30.0 2517 1888 73682 10910 3843921527 4405 0.000000 0.000000
53 2.812500 30.0 1912 1900 73623 11545 3843921562 3812 0.000000 0.000000
54 2.867432 30.0 1477 2364 73917 12046 3843921597 3841 0.000000 0.000000
55 2.944336 30.0 1083 2801 74048 11604 3843921632 3884 0.000000 0.000000
56 3.010254 30.0 990 3335 73860 10815 3843921668 4325 0.000000 0.000000
57 3.065186 30.0 1029 3842 73818 9670 3843921703 4871 0.000000 0.000000
58 3.120117 30.0 1226 4084 73886 8695 3843921738 5310 0.000000 0.000000
59 3.197021 30.0 1865 4557 74039 7255 3843921773 6422 0.000000 0.000000
60 3.262939 30.0 2258 4826 73219 6080 3843921808 7084 0.000000 0.000000
61 3.306885 30.0 2732 4651 74092 5395 3843921844 7383 0.000000 0.000000
62 3.372803 30.0 3369 4306 73864 4968 3843921879 7675 0.000000 0.000000
63 3.438721 30.0 3661 3928 74246 5173 3843921914 7589 0.000000 0.000000
64 3.504639 30.0 3775 3403 74796 5879 3843921949 7178 0.000000 0.000000
