# ps_pos exposure_time(s) O-Beam H-Beam Monitor AUX-Beam time(s) O+H+AUX encod1 encod2
1 -0.065918 30.0 6057 5041 93417 6568 3843211479 11098 0.000000 0.000000
2 -0.131836 30.0 6305 4578 93176 6823 3843211516 10883 0.000000 0.000000
3 -0.186768 30.0 6676 3893 93273 7516 3843211552 10569 0.000000 0.000000
4 -0.241699 30.0 7000 3087 93214 8700 3843211588 10087 0.000000 0.000000
5 -0.296631 30.0 6447 2534 92557 10408 3843211624 8981 0.000000 0.000000
6 -0.362549 30.0 5645 2277 92957 12497 3843211660 7922 0.000000 0.000000
7 -0.428467 30.0 4571 2183 93405 14459 3843211697 6754 0.000000 0.000000
8 -0.516357 30.0 3502 2311 92460 15632 3843211733 5813 0.000000 0.000000
9 -0.571289 30.0 2485 2651 92994 16743 3843211769 5136 0.000000 0.000000
10 -0.637207 30.0 1785 3109 93260 16742 3843211805 4894 0.000000 0.000000
11 -0.681152 30.0 1696 3618 93355 16331 3843211841 5314 0.000000 0.000000
12 -0.758057 30.0 1892 4157 92947 14814 3843211878 6049 0.000000 0.000000
13 -0.812988 30.0 2572 4613 93149 13030 3843211914 7185 0.000000 0.000000
14 -0.889893 30.0 3546 4954 92750 10630 3843211950 8500 0.000000 0.000000
15 -0.944824 30.0 4786 4788 93054 9083 3843211986 9574 0.000000 0.000000
16 -1.021729 30.0 5733 4908 93031 7182 3843212022 10641 0.000000 0.000000
17 -1.087646 30.0 6478 4299 92962 6596 3843212059 10777 0.000000 0.000000
18 -1.142578 30.0 7713 3658 92664 6538 3843212095 11371 0.000000 0.000000
19 -1.208496 30.0 7685 3239 92824 7133 3843212131 10924 0.000000 0.000000
20 -1.263428 30.0 7461 2800 92820 8408 3843212167 10261 0.000000 0.000000
21 -1.329346 30.0 6699 2300 92781 9992 3843212204 8999 0.000000 0.000000
22 -1.395264 30.0 5707 2288 93438 12401 3843212240 7995 0.000000 0.000000
23 -1.472168 30.0 4420 2238 92856 14420 3843212276 6658 0.000000 0.000000
24 -1.538086 30.0 3234 2350 92569 15805 3843212312 5584 0.000000 0.000000
25 -1.604004 30.0 2369 2759 92449 16731 3843212348 5128 0.000000 0.000000
26 -1.658935 30.0 1819 3158 93357 16499 3843212385 4977 0.000000 0.000000
27 -1.724854 30.0 1841 3535 92651 15835 3843212421 5376 0.000000 0.000000
28 -1.801758 30.0 2216 4276 93621 14295 3843212457 6492 0.000000 0.000000
29 -1.867676 30.0 2773 4402 92830 12543 3843212493 7175 0.000000 0.000000
30 -1.922607 30.0 4043 4447 92637 10647 3843212529 8490 0.000000 0.000000
